ECG raw data collected for 1 min # patient: 22y, no other heart diseases, male, athlete
348.00
350.00
348.00
350.00
347.00
350.00
349.00
349.00
348.00
348.00
347.00
348.00
350.00
351.00
350.00
351.00
351.00
348.00
352.00
349.00
348.00
348.00
349.00
348.00
352.00
350.00
348.00
350.00
349.00
348.00
350.00
350.00
350.00
352.00
349.00
349.00
352.00
352.00
353.00
358.00
358.00
362.00
366.00
369.00
375.00
380.00
383.00
388.00
390.00
389.00
390.00
389.00
389.00
390.00
393.00
394.00
401.00
402.00
401.00
402.00
396.00
389.00
389.00
384.00
379.00
375.00
369.00
364.00
360.00
357.00
356.00
357.00
354.00
352.00
352.00
351.00
350.00
349.00
347.00
349.00
349.00
347.00
347.00
348.00
346.00
349.00
348.00
344.00
345.00
344.00
343.00
345.00
347.00
344.00
344.00
336.00
329.00
328.00
330.00
332.00
341.00
349.00
360.00
377.00
394.00
423.00
463.00
512.00
574.00
637.00
685.00
712.00
709.00
677.00
634.00
586.00
536.00
490.00
445.00
404.00
370.00
344.00
326.00
317.00
315.00
316.00
326.00
333.00
341.00
348.00
350.00
348.00
351.00
348.00
345.00
346.00
345.00
343.00
343.00
343.00
342.00
345.00
343.00
343.00
345.00
344.00
344.00
347.00
344.00
344.00
347.00
345.00
347.00
348.00
347.00
348.00
348.00
346.00
348.00
349.00
348.00
351.00
349.00
347.00
352.00
350.00
349.00
352.00
354.00
352.00
356.00
354.00
353.00
355.00
354.00
353.00
356.00
358.00
359.00
362.00
361.00
361.00
363.00
363.00
364.00
366.00
365.00
366.00
366.00
365.00
367.00
370.00
369.00
374.00
375.00
374.00
377.00
378.00
377.00
377.00
377.00
377.00
381.00
383.00
383.00
386.00
388.00
388.00
393.00
393.00
394.00
397.00
398.00
400.00
402.00
401.00
404.00
406.00
404.00
406.00
407.00
406.00
410.00
411.00
412.00
414.00
416.00
416.00
417.00
418.00
416.00
417.00
415.00
412.00
410.00
408.00
405.00
403.00
399.00
393.00
392.00
387.00
384.00
382.00
378.00
373.00
372.00
367.00
363.00
363.00
356.00
352.00
350.00
345.00
342.00
343.00
339.00
338.00
339.00
337.00
335.00
335.00
334.00
335.00
334.00
331.00
330.00
327.00
326.00
329.00
329.00
329.00
332.00
331.00
329.00
330.00
329.00
325.00
329.00
328.00
327.00
330.00
331.00
329.00
331.00
330.00
330.00
333.00
331.00
332.00
333.00
331.00
331.00
333.00
331.00
332.00
334.00
333.00
336.00
338.00
337.00
340.00
340.00
338.00
340.00
341.00
338.00
342.00
341.00
340.00
344.00
342.00
341.00
340.00
341.00
340.00
345.00
343.00
342.00
342.00
343.00
343.00
346.00
344.00
345.00
346.00
342.00
343.00
345.00
344.00
344.00
348.00
346.00
346.00
346.00
342.00
342.00
344.00
343.00
345.00
346.00
343.00
343.00
343.00
342.00
343.00
343.00
341.00
345.00
344.00
344.00
346.00
345.00
344.00
348.00
345.00
346.00
347.00
344.00
342.00
344.00
342.00
342.00
344.00
343.00
343.00
346.00
346.00
345.00
346.00
345.00
347.00
346.00
345.00
345.00
345.00
344.00
346.00
346.00
345.00
346.00
346.00
345.00
347.00
346.00
342.00
347.00
345.00
345.00
347.00
348.00
346.00
350.00
347.00
346.00
347.00
345.00
344.00
346.00
345.00
346.00
347.00
345.00
346.00
347.00
347.00
347.00
349.00
348.00
350.00
351.00
348.00
350.00
349.00
347.00
350.00
349.00
348.00
350.00
349.00
348.00
349.00
349.00
347.00
350.00
350.00
348.00
349.00
350.00
351.00
352.00
350.00
350.00
353.00
349.00
350.00
352.00
350.00
350.00
353.00
350.00
351.00
353.00
352.00
353.00
354.00
352.00
354.00
356.00
355.00
357.00
361.00
363.00
367.00
372.00
375.00
383.00
386.00
388.00
389.00
389.00
386.00
389.00
387.00
390.00
394.00
395.00
398.00
402.00
399.00
396.00
394.00
388.00
384.00
382.00
376.00
372.00
370.00
366.00
363.00
361.00
357.00
358.00
356.00
354.00
354.00
353.00
349.00
349.00
348.00
347.00
346.00
346.00
343.00
348.00
347.00
345.00
347.00
347.00
345.00
350.00
350.00
349.00
349.00
345.00
341.00
338.00
335.00
334.00
339.00
342.00
350.00
364.00
379.00
400.00
427.00
462.00
514.00
573.00
635.00
693.00
717.00
711.00
691.00
649.00
600.00
553.00
505.00
458.00
418.00
384.00
354.00
337.00
325.00
320.00
324.00
330.00
336.00
345.00
349.00
352.00
356.00
353.00
354.00
354.00
351.00
350.00
352.00
349.00
349.00
350.00
348.00
349.00
350.00
349.00
350.00
351.00
350.00
351.00
352.00
350.00
351.00
351.00
349.00
352.00
350.00
351.00
355.00
355.00
354.00
358.00
357.00
356.00
357.00
356.00
357.00
358.00
357.00
356.00
360.00
359.00
359.00
363.00
362.00
362.00
364.00
363.00
363.00
364.00
362.00
364.00
365.00
366.00
369.00
369.00
368.00
370.00
370.00
371.00
374.00
375.00
374.00
377.00
376.00
375.00
377.00
377.00
375.00
381.00
380.00
380.00
383.00
383.00
384.00
386.00
387.00
390.00
393.00
393.00
395.00
397.00
398.00
401.00
402.00
403.00
406.00
409.00
409.00
412.00
414.00
414.00
418.00
419.00
417.00
419.00
419.00
417.00
418.00
419.00
417.00
420.00
419.00
417.00
417.00
416.00
413.00
413.00
410.00
408.00
404.00
397.00
393.00
389.00
384.00
381.00
380.00
374.00
370.00
368.00
362.00
359.00
357.00
352.00
350.00
347.00
343.00
342.00
342.00
338.00
337.00
335.00
331.00
331.00
330.00
330.00
331.00
330.00
327.00
330.00
327.00
326.00
327.00
326.00
324.00
327.00
327.00
326.00
329.00
325.00
324.00
326.00
325.00
325.00
328.00
326.00
325.00
327.00
325.00
326.00
326.00
325.00
326.00
327.00
327.00
328.00
330.00
330.00
333.00
333.00
331.00
335.00
333.00
331.00
333.00
333.00
331.00
336.00
334.00
332.00
335.00
334.00
333.00
334.00
334.00
334.00
336.00
335.00
336.00
336.00
337.00
337.00
339.00
336.00
338.00
337.00
334.00
335.00
336.00
335.00
338.00
338.00
335.00
337.00
337.00
335.00
336.00
336.00
333.00
336.00
336.00
336.00
338.00
338.00
337.00
341.00
338.00
336.00
336.00
335.00
334.00
336.00
336.00
336.00
339.00
336.00
336.00
337.00
335.00
336.00
336.00
336.00
337.00
338.00
335.00
336.00
337.00
335.00
336.00
337.00
334.00
335.00
336.00
335.00
338.00
337.00
336.00
340.00
338.00
338.00
341.00
339.00
337.00
341.00
337.00
336.00
340.00
337.00
337.00
340.00
340.00
339.00
342.00
340.00
339.00
342.00
340.00
340.00
341.00
339.00
340.00
340.00
337.00
339.00
339.00
338.00
340.00
339.00
337.00
340.00
339.00
339.00
340.00
341.00
338.00
343.00
340.00
338.00
340.00
338.00
334.00
334.00
334.00
335.00
340.00
340.00
341.00
342.00
341.00
341.00
343.00
340.00
341.00
343.00
342.00
344.00
345.00
342.00
345.00
344.00
341.00
344.00
346.00
343.00
346.00
345.00
344.00
350.00
352.00
354.00
359.00
363.00
366.00
373.00
376.00
377.00
378.00
378.00
376.00
377.00
377.00
379.00
384.00
384.00
387.00
390.00
387.00
386.00
383.00
376.00
373.00
369.00
362.00
359.00
357.00
353.00
352.00
352.00
348.00
346.00
344.00
339.00
336.00
334.00
333.00
338.00
337.00
337.00
338.00
338.00
336.00
340.00
338.00
338.00
341.00
339.00
339.00
342.00
341.00
339.00
341.00
334.00
329.00
327.00
325.00
328.00
333.00
339.00
350.00
363.00
380.00
405.00
435.00
475.00
530.00
585.00
641.00
683.00
693.00
676.00
644.00
600.00
551.00
512.00
468.00
427.00
395.00
365.00
340.00
328.00
318.00
314.00
320.00
323.00
329.00
337.00
341.00
344.00
347.00
345.00
345.00
345.00
344.00
343.00
344.00
341.00
341.00
339.00
334.00
335.00
336.00
335.00
338.00
340.00
339.00
342.00
341.00
339.00
339.00
338.00
335.00
339.00
338.00
336.00
338.00
341.00
340.00
341.00
341.00
341.00
344.00
343.00
345.00
347.00
345.00
347.00
349.00
345.00
347.00
349.00
347.00
347.00
349.00
349.00
351.00
352.00
350.00
351.00
353.00
353.00
356.00
356.00
355.00
359.00
358.00
357.00
359.00
358.00
358.00
364.00
362.00
363.00
366.00
366.00
367.00
369.00
369.00
369.00
373.00
372.00
373.00
377.00
376.00
377.00
380.00
380.00
382.00
384.00
386.00
389.00
391.00
392.00
396.00
396.00
396.00
399.00
400.00
402.00
404.00
404.00
402.00
407.00
405.00
403.00
406.00
405.00
405.00
410.00
408.00
407.00
408.00
405.00
405.00
403.00
399.00
395.00
393.00
388.00
386.00
384.00
380.00
377.00
372.00
366.00
364.00
360.00
354.00
354.00
351.00
346.00
347.00
343.00
336.00
334.00
332.00
329.00
331.00
331.00
329.00
333.00
332.00
328.00
328.00
326.00
323.00
326.00
324.00
324.00
326.00
323.00
321.00
324.00
322.00
322.00
324.00
321.00
322.00
323.00
321.00
321.00
322.00
321.00
324.00
325.00
324.00
326.00
327.00
325.00
328.00
328.00
328.00
330.00
328.00
327.00
330.00
329.00
328.00
333.00
331.00
331.00
334.00
332.00
333.00
334.00
332.00
333.00
337.00
335.00
334.00
336.00
334.00
334.00
337.00
335.00
335.00
337.00
335.00
336.00
337.00
335.00
338.00
337.00
337.00
339.00
339.00
338.00
338.00
337.00
335.00
339.00
337.00
335.00
337.00
336.00
333.00
337.00
335.00
333.00
335.00
334.00
336.00
340.00
341.00
342.00
344.00
342.00
341.00
341.00
340.00
340.00
340.00
339.00
340.00
341.00
339.00
341.00
341.00
338.00
341.00
340.00
336.00
337.00
338.00
337.00
339.00
338.00
336.00
340.00
339.00
338.00
339.00
340.00
338.00
341.00
340.00
341.00
343.00
341.00
342.00
344.00
342.00
343.00
346.00
342.00
342.00
343.00
341.00
342.00
343.00
341.00
343.00
343.00
340.00
338.00
341.00
339.00
341.00
342.00
341.00
341.00
342.00
341.00
342.00
341.00
341.00
346.00
345.00
345.00
348.00
348.00
348.00
350.00
349.00
351.00
357.00
358.00
364.00
367.00
369.00
373.00
378.00
377.00
377.00
377.00
374.00
375.00
375.00
375.00
380.00
383.00
386.00
391.00
390.00
385.00
384.00
378.00
374.00
373.00
368.00
362.00
360.00
356.00
352.00
355.00
351.00
348.00
349.00
347.00
344.00
344.00
343.00
343.00
344.00
342.00
342.00
341.00
340.00
340.00
341.00
339.00
341.00
343.00
343.00
345.00
346.00
342.00
344.00
339.00
331.00
328.00
328.00
328.00
335.00
344.00
352.00
368.00
383.00
402.00
431.00
468.00
516.00
572.00
623.00
661.00
677.00
664.00
636.00
600.00
559.00
523.00
484.00
442.00
408.00
380.00
353.00
335.00
323.00
315.00
318.00
322.00
326.00
331.00
337.00
338.00
343.00
344.00
342.00
343.00
345.00
343.00
344.00
341.00
340.00
344.00
341.00
341.00
345.00
343.00
342.00
346.00
343.00
345.00
348.00
345.00
346.00
347.00
345.00
345.00
348.00
345.00
346.00
348.00
349.00
350.00
351.00
350.00
354.00
353.00
351.00
352.00
351.00
349.00
352.00
351.00
352.00
355.00
358.00
359.00
363.00
362.00
359.00
362.00
359.00
359.00
361.00
361.00
360.00
363.00
361.00
361.00
363.00
361.00
362.00
366.00
368.00
371.00
373.00
372.00
373.00
373.00
374.00
376.00
378.00
376.00
380.00
381.00
381.00
384.00
384.00
381.00
385.00
384.00
383.00
387.00
387.00
388.00
391.00
393.00
394.00
398.00
399.00
400.00
402.00
402.00
402.00
401.00
398.00
400.00
402.00
401.00
404.00
407.00
405.00
407.00
408.00
404.00
405.00
403.00
400.00
397.00
397.00
393.00
393.00
390.00
387.00
385.00
383.00
378.00
375.00
372.00
367.00
367.00
362.00
359.00
357.00
353.00
351.00
351.00
346.00
344.00
343.00
339.00
339.00
340.00
337.00
337.00
339.00
336.00
335.00
336.00
335.00
336.00
335.00
333.00
336.00
336.00
333.00
335.00
336.00
334.00
338.00
337.00
336.00
337.00
337.00
336.00
338.00
337.00
335.00
340.00
337.00
336.00
338.00
339.00
337.00
342.00
340.00
340.00
341.00
339.00
339.00
341.00
341.00
342.00
344.00
342.00
342.00
343.00
344.00
345.00
346.00
344.00
349.00
348.00
346.00
347.00
346.00
343.00
346.00
345.00
343.00
346.00
345.00
345.00
348.00
347.00
346.00
349.00
348.00
347.00
347.00
346.00
345.00
344.00
344.00
345.00
347.00
344.00
347.00
347.00
346.00
348.00
349.00
346.00
347.00
347.00
346.00
348.00
349.00
346.00
348.00
347.00
346.00
347.00
348.00
347.00
350.00
349.00
347.00
351.00
348.00
348.00
348.00
345.00
343.00
347.00
345.00
346.00
350.00
350.00
349.00
350.00
348.00
347.00
349.00
347.00
349.00
351.00
350.00
350.00
352.00
349.00
349.00
349.00
349.00
350.00
351.00
350.00
354.00
352.00
351.00
352.00
352.00
352.00
353.00
354.00
352.00
356.00
353.00
353.00
355.00
355.00
354.00
357.00
355.00
354.00
358.00
361.00
365.00
370.00
373.00
379.00
383.00
384.00
386.00
386.00
385.00
386.00
384.00
385.00
392.00
393.00
395.00
401.00
403.00
400.00
401.00
396.00
390.00
388.00
383.00
378.00
374.00
369.00
364.00
363.00
359.00
357.00
354.00
355.00
353.00
354.00
352.00
350.00
351.00
348.00
349.00
349.00
348.00
349.00
350.00
347.00
349.00
351.00
349.00
349.00
350.00
348.00
352.00
350.00
345.00
342.00
337.00
333.00
340.00
345.00
352.00
363.00
373.00
388.00
409.00
433.00
469.00
518.00
568.00
626.00
673.00
694.00
692.00
665.00
624.00
581.00
539.00
495.00
456.00
421.00
388.00
361.00
341.00
324.00
319.00
320.00
323.00
331.00
339.00
343.00
350.00
351.00
350.00
352.00
352.00
350.00
353.00
350.00
348.00
351.00
348.00
349.00
349.00
349.00
348.00
352.00
350.00
349.00
352.00
351.00
352.00
354.00
354.00
354.00
355.00
352.00
354.00
355.00
354.00
356.00
357.00
357.00
358.00
357.00
356.00
359.00
360.00
359.00
364.00
363.00
361.00
363.00
362.00
364.00
366.00
368.00
367.00
369.00
368.00
367.00
369.00
369.00
369.00
372.00
370.00
371.00
372.00
372.00
374.00
376.00
376.00
379.00
379.00
378.00
380.00
383.00
383.00
385.00
386.00
385.00
386.00
386.00
385.00
388.00
390.00
391.00
396.00
396.00
396.00
398.00
398.00
399.00
402.00
402.00
404.00
408.00
406.00
408.00
412.00
410.00
412.00
415.00
414.00
416.00
417.00
415.00
417.00
419.00
417.00
417.00
418.00
415.00
415.00
415.00
413.00
412.00
409.00
406.00
407.00
402.00
398.00
394.00
390.00
386.00
385.00
380.00
376.00
375.00
369.00
365.00
364.00
360.00
357.00
358.00
353.00
349.00
349.00
346.00
344.00
344.00
341.00
341.00
341.00
339.00
338.00
338.00
337.00
338.00
337.00
335.00
335.00
336.00
333.00
335.00
334.00
332.00
337.00
336.00
333.00
335.00
335.00
333.00
337.00
338.00
337.00
339.00
336.00
335.00
336.00
336.00
335.00
338.00
337.00
339.00
341.00
341.00
343.00
344.00
344.00
345.00
346.00
343.00
344.00
345.00
342.00
344.00
346.00
343.00
346.00
345.00
343.00
344.00
345.00
343.00
347.00
347.00
346.00
348.00
348.00
349.00
348.00
345.00
344.00
346.00
343.00
345.00
347.00
347.00
347.00
350.00
347.00
348.00
349.00
347.00
345.00
347.00
345.00
347.00
347.00
346.00
346.00
348.00
347.00
347.00
348.00
345.00
349.00
348.00
347.00
349.00
347.00
344.00
348.00
345.00
344.00
346.00
346.00
347.00
348.00
346.00
345.00
349.00
347.00
347.00
349.00
348.00
346.00
348.00
347.00
348.00
349.00
346.00
347.00
348.00
347.00
349.00
349.00
347.00
347.00
348.00
348.00
351.00
351.00
348.00
352.00
351.00
349.00
349.00
350.00
348.00
352.00
350.00
350.00
352.00
350.00
350.00
351.00
351.00
352.00
354.00
353.00
352.00
352.00
351.00
351.00
352.00
349.00
351.00
351.00
347.00
350.00
351.00
349.00
352.00
353.00
350.00
351.00
352.00
351.00
353.00
353.00
350.00
353.00
353.00
352.00
354.00
354.00
353.00
357.00
361.00
366.00
373.00
375.00
382.00
386.00
388.00
391.00
392.00
389.00
389.00
390.00
391.00
394.00
398.00
399.00
401.00
404.00
402.00
401.00
398.00
392.00
389.00
383.00
376.00
374.00
368.00
364.00
362.00
359.00
356.00
359.00
355.00
352.00
352.00
349.00
349.00
349.00
347.00
345.00
349.00
346.00
346.00
348.00
346.00
345.00
347.00
344.00
345.00
345.00
346.00
345.00
346.00
344.00
343.00
339.00
333.00
334.00
336.00
339.00
345.00
355.00
367.00
389.00
411.00
442.00
491.00
547.00
610.00
680.00
717.00
717.00
714.00
686.00
642.00
591.00
535.00
483.00
433.00
390.00
357.00
335.00
320.00
315.00
316.00
322.00
333.00
341.00
344.00
350.00
352.00
349.00
351.00
350.00
345.00
346.00
345.00
344.00
345.00
345.00
344.00
348.00
347.00
345.00
345.00
346.00
345.00
349.00
348.00
348.00
350.00
347.00
348.00
351.00
350.00
352.00
354.00
350.00
351.00
352.00
351.00
353.00
354.00
352.00
355.00
356.00
355.00
357.00
360.00
359.00
361.00
360.00
359.00
361.00
360.00
360.00
363.00
363.00
362.00
366.00
364.00
364.00
366.00
366.00
366.00
368.00
368.00
369.00
372.00
371.00
374.00
375.00
374.00
375.00
378.00
377.00
378.00
381.00
382.00
384.00
385.00
385.00
389.00
391.00
392.00
394.00
396.00
396.00
400.00
399.00
398.00
403.00
402.00
403.00
407.00
408.00
409.00
415.00
415.00
415.00
419.00
420.00
420.00
420.00
420.00
420.00
420.00
418.00
419.00
420.00
420.00
421.00
420.00
420.00
419.00
416.00
411.00
410.00
406.00
399.00
399.00
395.00
388.00
386.00
380.00
375.00
371.00
366.00
360.00
359.00
354.00
351.00
349.00
346.00
342.00
342.00
337.00
336.00
335.00
332.00
332.00
332.00
331.00
331.00
332.00
327.00
328.00
329.00
325.00
325.00
324.00
323.00
325.00
327.00
325.00
327.00
328.00
326.00
329.00
328.00
326.00
326.00
327.00
326.00
327.00
327.00
326.00
331.00
329.00
329.00
332.00
329.00
328.00
333.00
331.00
330.00
333.00
331.00
331.00
333.00
332.00
334.00
337.00
335.00
336.00
337.00
337.00
337.00
338.00
337.00
341.00
339.00
337.00
339.00
339.00
338.00
340.00
339.00
339.00
341.00
339.00
337.00
341.00
339.00
338.00
341.00
340.00
338.00
341.00
340.00
339.00
340.00
339.00
340.00
341.00
339.00
340.00
339.00
337.00
339.00
340.00
339.00
340.00
340.00
338.00
340.00
339.00
337.00
341.00
340.00
338.00
340.00
340.00
337.00
342.00
340.00
339.00
343.00
341.00
340.00
341.00
341.00
339.00
343.00
340.00
340.00
342.00
342.00
343.00
344.00
341.00
342.00
344.00
340.00
341.00
343.00
341.00
343.00
344.00
342.00
344.00
344.00
342.00
343.00
344.00
342.00
346.00
346.00
345.00
346.00
346.00
344.00
344.00
342.00
342.00
346.00
343.00
343.00
345.00
344.00
344.00
347.00
344.00
345.00
346.00
343.00
343.00
345.00
344.00
345.00
347.00
344.00
344.00
346.00
346.00
346.00
347.00
347.00
350.00
349.00
347.00
349.00
348.00
346.00
351.00
349.00
347.00
349.00
349.00
349.00
351.00
351.00
349.00
354.00
354.00
356.00
360.00
365.00
369.00
376.00
378.00
382.00
384.00
384.00
385.00
385.00
385.00
387.00
389.00
391.00
394.00
396.00
397.00
398.00
395.00
388.00
389.00
384.00
379.00
378.00
373.00
366.00
366.00
361.00
358.00
358.00
354.00
352.00
351.00
348.00
346.00
346.00
343.00
342.00
343.00
342.00
341.00
342.00
341.00
344.00
346.00
343.00
345.00
347.00
346.00
347.00
348.00
344.00
345.00
343.00
337.00
334.00
333.00
332.00
337.00
340.00
345.00
359.00
375.00
392.00
418.00
455.00
504.00
567.00
629.00
688.00
717.00
712.00
692.00
653.00
601.00
552.00
504.00
452.00
410.00
375.00
346.00
328.00
318.00
313.00
317.00
325.00
332.00
340.00
346.00
346.00
349.00
347.00
346.00
347.00
346.00
343.00
346.00
344.00
342.00
343.00
340.00
342.00
344.00
343.00
342.00
347.00
346.00
346.00
347.00
345.00
343.00
346.00
344.00
345.00
348.00
348.00
348.00
348.00
348.00
349.00
349.00
347.00
348.00
350.00
350.00
352.00
354.00
353.00
357.00
356.00
354.00
355.00
356.00
353.00
359.00
359.00
357.00
359.00
358.00
358.00
359.00
359.00
359.00
362.00
362.00
364.00
365.00
368.00
368.00
368.00
369.00
371.00
372.00
370.00
372.00
374.00
373.00
376.00
377.00
375.00
378.00
379.00
379.00
381.00
383.00
384.00
388.00
389.00
390.00
392.00
393.00
393.00
398.00
398.00
400.00
403.00
402.00
404.00
407.00
407.00
411.00
413.00
411.00
411.00
412.00
411.00
412.00
412.00
411.00
413.00
414.00
412.00
412.00
411.00
407.00
406.00
403.00
398.00
394.00
390.00
386.00
384.00
381.00
377.00
377.00
371.00
366.00
363.00
358.00
352.00
350.00
346.00
343.00
344.00
339.00
336.00
336.00
332.00
329.00
331.00
326.00
325.00
325.00
323.00
323.00
323.00
322.00
323.00
322.00
319.00
319.00
319.00
319.00
322.00
321.00
319.00
323.00
321.00
320.00
322.00
321.00
318.00
322.00
320.00
319.00
322.00
321.00
322.00
324.00
323.00
323.00
326.00
324.00
324.00
326.00
325.00
326.00
329.00
328.00
330.00
331.00
329.00
328.00
329.00
328.00
332.00
333.00
331.00
334.00
336.00
334.00
336.00
337.00
333.00
337.00
335.00
334.00
335.00
335.00
333.00
336.00
334.00
333.00
334.00
333.00
335.00
337.00
335.00
336.00
338.00
335.00
336.00
337.00
334.00
335.00
335.00
335.00
337.00
338.00
336.00
336.00
337.00
335.00
337.00
337.00
335.00
336.00
337.00
336.00
338.00
337.00
335.00
338.00
335.00
334.00
335.00
337.00
336.00
340.00
338.00
337.00
340.00
338.00
338.00
340.00
339.00
339.00
341.00
338.00
337.00
338.00
337.00
337.00
338.00
338.00
342.00
342.00
341.00
342.00
340.00
338.00
339.00
338.00
337.00
340.00
340.00
339.00
341.00
340.00
338.00
343.00
340.00
339.00
342.00
342.00
340.00
342.00
342.00
342.00
343.00
341.00
342.00
341.00
341.00
342.00
344.00
341.00
341.00
342.00
341.00
343.00
344.00
342.00
345.00
344.00
342.00
344.00
345.00
343.00
347.00
346.00
344.00
348.00
349.00
349.00
352.00
356.00
359.00
366.00
369.00
372.00
377.00
378.00
378.00
378.00
376.00
378.00
381.00
380.00
383.00
387.00
388.00
390.00
389.00
383.00
382.00
379.00
375.00
372.00
369.00
363.00
361.00
357.00
352.00
351.00
352.00
347.00
345.00
342.00
340.00
343.00
341.00
341.00
343.00
342.00
342.00
346.00
342.00
341.00
341.00
339.00
339.00
341.00
340.00
341.00
344.00
343.00
343.00
342.00
335.00
331.00
329.00
330.00
337.00
344.00
353.00
368.00
384.00
404.00
434.00
468.00
515.00
572.00
625.00
668.00
689.00
677.00
645.00
608.00
562.00
520.00
479.00
439.00
403.00
377.00
352.00
333.00
324.00
316.00
318.00
323.00
328.00
337.00
344.00
345.00
348.00
348.00
348.00
347.00
346.00
343.00
346.00
345.00
342.00
345.00
346.00
344.00
350.00
349.00
348.00
350.00
348.00
346.00
347.00
346.00
345.00
348.00
346.00
347.00
349.00
349.00
349.00
349.00
349.00
352.00
355.00
352.00
354.00
355.00
352.00
353.00
355.00
352.00
355.00
355.00
354.00
356.00
358.00
357.00
361.00
362.00
362.00
362.00
362.00
360.00
363.00
362.00
362.00
366.00
364.00
368.00
370.00
369.00
368.00
371.00
368.00
368.00
370.00
369.00
369.00
372.00
372.00
374.00
378.00
377.00
377.00
379.00
379.00
382.00
384.00
385.00
387.00
386.00
386.00
389.00
390.00
391.00
397.00
396.00
397.00
399.00
399.00
401.00
403.00
402.00
402.00
405.00
403.00
402.00
404.00
405.00
406.00
410.00
409.00
409.00
410.00
408.00
408.00
406.00
404.00
403.00
401.00
397.00
394.00
390.00
385.00
382.00
378.00
373.00
375.00
371.00
366.00
366.00
362.00
356.00
358.00
355.00
350.00
350.00
346.00
343.00
343.00
340.00
338.00
338.00
334.00
332.00
332.00
331.00
330.00
332.00
331.00
330.00
332.00
329.00
331.00
333.00
331.00
333.00
333.00
330.00
332.00
333.00
332.00
332.00
332.00
329.00
331.00
329.00
328.00
329.00
330.00
330.00
336.00
337.00
338.00
340.00
336.00
336.00
337.00
336.00
337.00
341.00
337.00
339.00
340.00
338.00
341.00
341.00
339.00
340.00
341.00
339.00
340.00
341.00
341.00
343.00
345.00
343.00
343.00
344.00
343.00
344.00
342.00
339.00
342.00
340.00
339.00
342.00
342.00
341.00
343.00
341.00
341.00
345.00
341.00
341.00
342.00
341.00
341.00
347.00
345.00
345.00
348.00
345.00
345.00
345.00
344.00
345.00
345.00
343.00
345.00
346.00
345.00
347.00
346.00
344.00
346.00
344.00
341.00
342.00
343.00
340.00
345.00
344.00
342.00
345.00
343.00
344.00
345.00
345.00
345.00
347.00
345.00
345.00
346.00
346.00
346.00
348.00
345.00
345.00
346.00
344.00
345.00
346.00
345.00
349.00
350.00
347.00
348.00
348.00
346.00
348.00
347.00
345.00
348.00
347.00
347.00
350.00
351.00
351.00
354.00
354.00
355.00
356.00
358.00
361.00
365.00
368.00
374.00
379.00
379.00
380.00
381.00
378.00
379.00
380.00
380.00
384.00
387.00
388.00
392.00
395.00
392.00
390.00
386.00
382.00
380.00
377.00
371.00
368.00
362.00
357.00
360.00
356.00
354.00
351.00
349.00
346.00
349.00
345.00
344.00
344.00
341.00
340.00
344.00
343.00
343.00
345.00
343.00
343.00
345.00
343.00
343.00
344.00
343.00
345.00
343.00
340.00
336.00
333.00
331.00
336.00
342.00
347.00
359.00
372.00
387.00
409.00
435.00
471.00
523.00
576.00
628.00
671.00
687.00
675.00
646.00
606.00
564.00
523.00
481.00
445.00
408.00
378.00
354.00
336.00
322.00
316.00
316.00
319.00
327.00
334.00
338.00
346.00
347.00
346.00
349.00
348.00
345.00
347.00
346.00
343.00
347.00
345.00
345.00
346.00
347.00
345.00
349.00
347.00
347.00
348.00
347.00
347.00
347.00
345.00
346.00
348.00
346.00
348.00
351.00
350.00
353.00
355.00
353.00
356.00
355.00
354.00
353.00
355.00
353.00
357.00
357.00
356.00
358.00
359.00
357.00
358.00
359.00
359.00
364.00
362.00
362.00
365.00
362.00
361.00
363.00
360.00
361.00
363.00
363.00
365.00
368.00
367.00
368.00
370.00
368.00
370.00
374.00
374.00
375.00
376.00
375.00
378.00
378.00
377.00
380.00
381.00
381.00
386.00
385.00
385.00
388.00
388.00
389.00
393.00
392.00
391.00
395.00
395.00
395.00
397.00
397.00
396.00
401.00
400.00
402.00
403.00
402.00
403.00
404.00
404.00
405.00
404.00
401.00
400.00
399.00
398.00
398.00
396.00
392.00
393.00
388.00
383.00
382.00
379.00
374.00
375.00
370.00
365.00
365.00
360.00
357.00
356.00
352.00
349.00
350.00
346.00
344.00
344.00
342.00
341.00
340.00
338.00
339.00
338.00
333.00
333.00
334.00
331.00
334.00
335.00
332.00
333.00
333.00
333.00
335.00
335.00
332.00
334.00
333.00
331.00
331.00
332.00
331.00
336.00
335.00
333.00
338.00
335.00
335.00
337.00
335.00
335.00
338.00
336.00
337.00
340.00
340.00
338.00
340.00
337.00
338.00
340.00
338.00
339.00
340.00
339.00
341.00
342.00
341.00
342.00
342.00
342.00
344.00
344.00
341.00
344.00
341.00
339.00
341.00
340.00
340.00
342.00
343.00
342.00
346.00
343.00
342.00
343.00
341.00
341.00
344.00
342.00
341.00
344.00
342.00
344.00
344.00
342.00
342.00
341.00
339.00
340.00
342.00
342.00
344.00
342.00
340.00
343.00
341.00
340.00
342.00
341.00
339.00
344.00
343.00
342.00
346.00
346.00
344.00
344.00
343.00
342.00
345.00
343.00
342.00
341.00
342.00
342.00
344.00
344.00
346.00
347.00
345.00
347.00
347.00
345.00
348.00
348.00
345.00
347.00
348.00
346.00
346.00
346.00
344.00
347.00
347.00
345.00
346.00
347.00
345.00
349.00
348.00
350.00
353.00
354.00
358.00
363.00
366.00
370.00
376.00
377.00
380.00
381.00
379.00
379.00
380.00
382.00
386.00
388.00
390.00
392.00
397.00
397.00
398.00
395.00
388.00
384.00
380.00
375.00
372.00
367.00
361.00
361.00
355.00
354.00
355.00
351.00
348.00
350.00
346.00
345.00
347.00
344.00
345.00
346.00
345.00
345.00
347.00
344.00
343.00
346.00
344.00
343.00
343.00
342.00
346.00
345.00
343.00
342.00
338.00
332.00
334.00
335.00
340.00
348.00
355.00
367.00
384.00
403.00
427.00
468.00
512.00
565.00
622.00
668.00
689.00
685.00
657.00
619.00
577.00
534.00
492.00
451.00
414.00
384.00
359.00
338.00
324.00
318.00
316.00
321.00
327.00
331.00
340.00
344.00
345.00
349.00
350.00
347.00
349.00
349.00
346.00
348.00
345.00
342.00
343.00
344.00
344.00
349.00
348.00
346.00
348.00
347.00
347.00
348.00
347.00
348.00
350.00
347.00
348.00
349.00
348.00
351.00
354.00
353.00
355.00
356.00
354.00
354.00
355.00
354.00
357.00
357.00
357.00
358.00
359.00
360.00
361.00
360.00
359.00
363.00
362.00
362.00
364.00
364.00
365.00
368.00
366.00
367.00
370.00
368.00
369.00
372.00
371.00
372.00
374.00
374.00
376.00
378.00
377.00
378.00
380.00
380.00
383.00
382.00
382.00
384.00
384.00
384.00
388.00
387.00
388.00
391.00
392.00
392.00
396.00
396.00
395.00
399.00
398.00
397.00
400.00
401.00
401.00
403.00
403.00
404.00
405.00
404.00
408.00
408.00
409.00
412.00
413.00
411.00
410.00
408.00
404.00
403.00
402.00
399.00
402.00
399.00
395.00
394.00
389.00
383.00
382.00
377.00
371.00
370.00
365.00
361.00
360.00
358.00
356.00
356.00
353.00
352.00
351.00
350.00
346.00
344.00
341.00
340.00
340.00
335.00
336.00
336.00
334.00
336.00
336.00
334.00
336.00
337.00
337.00
336.00
336.00
333.00
336.00
336.00
334.00
334.00
335.00
332.00
333.00
333.00
333.00
336.00
335.00
335.00
337.00
336.00
336.00
339.00
336.00
336.00
338.00
338.00
339.00
341.00
338.00
339.00
341.00
339.00
341.00
342.00
343.00
343.00
344.00
343.00
346.00
344.00
343.00
345.00
345.00
343.00
348.00
345.00
345.00
346.00
346.00
345.00
346.00
345.00
344.00
348.00
345.00
344.00
346.00
346.00
345.00
348.00
345.00
346.00
345.00
344.00
344.00
345.00
344.00
345.00
345.00
342.00
343.00
344.00
344.00
345.00
345.00
343.00
347.00
346.00
344.00
347.00
347.00
345.00
349.00
347.00
345.00
348.00
348.00
348.00
349.00
347.00
347.00
349.00
347.00
347.00
348.00
348.00
347.00
346.00
345.00
346.00
347.00
344.00
347.00
349.00
347.00
350.00
351.00
348.00
349.00
349.00
348.00
349.00
349.00
347.00
351.00
350.00
349.00
350.00
351.00
350.00
352.00
351.00
350.00
352.00
350.00
351.00
353.00
351.00
351.00
354.00
350.00
351.00
352.00
350.00
350.00
351.00
350.00
352.00
353.00
350.00
351.00
352.00
350.00
352.00
353.00
352.00
356.00
358.00
363.00
368.00
372.00
376.00
384.00
386.00
390.00
393.00
392.00
391.00
392.00
392.00
393.00
398.00
399.00
402.00
406.00
405.00
405.00
404.00
398.00
394.00
393.00
387.00
383.00
378.00
372.00
368.00
363.00
358.00
359.00
358.00
356.00
356.00
353.00
349.00
353.00
350.00
347.00
349.00
347.00
345.00
349.00
347.00
346.00
350.00
349.00
349.00
350.00
349.00
350.00
351.00
348.00
346.00
341.00
337.00
336.00
339.00
341.00
346.00
353.00
362.00
380.00
399.00
421.00
461.00
507.00
565.00
634.00
696.00
718.00
718.00
709.00
675.00
630.00
576.00
522.00
471.00
424.00
383.00
355.00
332.00
319.00
318.00
319.00
327.00
337.00
344.00
352.00
357.00
356.00
356.00
357.00
355.00
356.00
353.00
351.00
353.00
352.00
350.00
348.00
351.00
349.00
351.00
351.00
350.00
352.00
353.00
351.00
353.00
351.00
350.00
354.00
352.00
353.00
355.00
353.00
353.00
358.00
357.00
358.00
360.00
357.00
360.00
360.00
360.00
361.00
363.00
361.00
361.00
363.00
364.00
364.00
364.00
362.00
365.00
363.00
362.00
364.00
365.00
365.00
370.00
368.00
370.00
373.00
372.00
372.00
375.00
375.00
375.00
378.00
377.00
377.00
379.00
381.00
381.00
383.00
384.00
386.00
387.00
386.00
388.00
389.00
390.00
394.00
396.00
397.00
399.00
400.00
400.00
403.00
403.00
401.00
406.00
407.00
407.00
411.00
412.00
411.00
416.00
414.00
414.00
417.00
417.00
418.00
420.00
420.00
421.00
423.00
421.00
421.00
420.00
418.00
415.00
412.00
407.00
407.00
404.00
400.00
399.00
395.00
392.00
389.00
384.00
377.00
374.00
369.00
363.00
361.00
358.00
352.00
353.00
351.00
347.00
346.00
343.00
340.00
338.00
335.00
334.00
335.00
332.00
331.00
332.00
331.00
330.00
332.00
328.00
328.00
329.00
328.00
329.00
331.00
330.00
331.00
331.00
327.00
328.00
330.00
328.00
329.00
329.00
327.00
330.00
327.00
326.00
328.00
329.00
329.00
334.00
332.00
332.00
335.00
333.00
333.00
335.00
332.00
332.00
337.00
335.00
336.00
339.00
337.00
337.00
340.00
339.00
341.00
341.00
340.00
343.00
342.00
341.00
342.00
341.00
338.00
339.00
340.00
340.00
340.00
340.00
338.00
344.00
343.00
340.00
342.00
341.00
337.00
341.00
339.00
339.00
342.00
340.00
341.00
342.00
342.00
341.00
341.00
338.00
337.00
338.00
339.00
340.00
342.00
340.00
343.00
342.00
339.00
341.00
341.00
338.00
340.00
340.00
336.00
338.00
339.00
339.00
340.00
341.00
338.00
341.00
338.00
337.00
338.00
337.00
337.00
338.00
338.00
339.00
342.00
340.00
341.00
343.00
340.00
340.00
341.00
338.00
340.00
342.00
340.00
342.00
343.00
341.00
343.00
343.00
341.00
342.00
341.00
341.00
342.00
341.00
339.00
342.00
340.00
340.00
343.00
342.00
341.00
345.00
342.00
342.00
343.00
343.00
345.00
346.00
345.00
345.00
347.00
345.00
344.00
345.00
343.00
343.00
345.00
343.00
344.00
346.00
344.00
345.00
345.00
343.00
347.00
346.00
344.00
347.00
348.00
347.00
349.00
347.00
344.00
348.00
345.00
343.00
345.00
346.00
345.00
350.00
349.00
349.00
351.00
351.00
354.00
357.00
360.00
366.00
372.00
376.00
382.00
387.00
388.00
390.00
387.00
384.00
386.00
386.00
387.00
393.00
395.00
395.00
400.00
398.00
393.00
391.00
387.00
384.00
381.00
376.00
371.00
369.00
364.00
360.00
358.00
356.00
354.00
355.00
351.00
349.00
347.00
343.00
344.00
344.00
343.00
345.00
346.00
343.00
344.00
346.00
344.00
345.00
344.00
342.00
344.00
344.00
341.00
341.00
341.00
336.00
336.00
331.00
329.00
331.00
334.00
339.00
350.00
362.00
380.00
404.00
431.00
474.00
530.00
591.00
659.00
709.00
716.00
711.00
682.00
633.00
583.00
533.00
481.00
435.00
396.00
362.00
339.00
324.00
315.00
316.00
320.00
326.00
338.00
344.00
347.00
352.00
351.00
348.00
350.00
346.00
342.00
344.00
341.00
341.00
344.00
344.00
342.00
346.00
343.00
342.00
344.00
343.00
344.00
346.00
346.00
348.00
349.00
347.00
348.00
346.00
347.00
348.00
348.00
346.00
350.00
350.00
349.00
353.00
354.00
351.00
355.00
353.00
351.00
355.00
355.00
353.00
356.00
356.00
356.00
359.00
357.00
357.00
358.00
358.00
358.00
359.00
358.00
358.00
359.00
359.00
362.00
364.00
362.00
366.00
367.00
365.00
367.00
369.00
367.00
370.00
371.00
371.00
375.00
375.00
375.00
375.00
379.00
378.00
382.00
382.00
382.00
384.00
387.00
388.00
391.00
391.00
395.00
398.00
395.00
398.00
401.00
401.00
405.00
407.00
406.00
409.00
410.00
408.00
409.00
411.00
411.00
413.00
414.00
413.00
414.00
415.00
414.00
413.00
412.00
408.00
410.00
405.00
402.00
401.00
396.00
391.00
390.00
383.00
380.00
379.00
372.00
368.00
365.00
359.00
354.00
353.00
348.00
346.00
346.00
342.00
339.00
336.00
334.00
334.00
331.00
329.00
328.00
326.00
324.00
327.00
324.00
322.00
323.00
322.00
320.00
322.00
321.00
319.00
323.00
321.00
320.00
322.00
322.00
321.00
326.00
324.00
324.00
326.00
323.00
323.00
323.00
323.00
324.00
325.00
323.00
324.00
325.00
327.00
328.00
329.00
326.00
329.00
328.00
326.00
329.00
331.00
329.00
334.00
334.00
332.00
335.00
333.00
332.00
334.00
334.00
332.00
335.00
333.00
333.00
334.00
335.00
335.00
335.00
334.00
336.00
338.00
335.00
335.00
335.00
333.00
334.00
335.00
333.00
336.00
336.00
335.00
336.00
337.00
336.00
337.00
336.00
334.00
334.00
336.00
333.00
336.00
336.00
335.00
337.00
335.00
335.00
334.00
334.00
333.00
337.00
333.00
333.00
335.00
334.00
334.00
336.00
336.00
337.00
339.00
336.00
337.00
338.00
338.00
338.00
339.00
338.00
339.00
337.00
335.00
336.00
335.00
334.00
339.00
337.00
337.00
339.00
338.00
339.00
339.00
338.00
337.00
340.00
338.00
337.00
340.00
339.00
338.00
342.00
339.00
338.00
340.00
338.00
339.00
340.00
340.00
341.00
341.00
340.00
341.00
342.00
341.00
342.00
341.00
338.00
342.00
340.00
339.00
342.00
343.00
341.00
345.00
344.00
343.00
345.00
344.00
343.00
344.00
343.00
342.00
345.00
343.00
343.00
344.00
343.00
343.00
345.00
344.00
344.00
345.00
342.00
344.00
346.00
344.00
347.00
348.00
345.00
348.00
349.00
348.00
349.00
348.00
346.00
349.00
349.00
350.00
354.00
360.00
361.00
368.00
371.00
375.00
380.00
380.00
382.00
383.00
381.00
381.00
383.00
381.00
383.00
387.00
388.00
391.00
391.00
387.00
386.00
384.00
379.00
375.00
372.00
366.00
363.00
358.00
352.00
350.00
350.00
349.00
349.00
347.00
343.00
347.00
343.00
341.00
342.00
341.00
339.00
342.00
340.00
340.00
343.00
340.00
340.00
342.00
342.00
342.00
345.00
342.00
340.00
339.00
334.00
330.00
328.00
328.00
335.00
341.00
348.00
362.00
376.00
392.00
418.00
449.00
493.00
550.00
606.00
660.00
692.00
696.00
669.00
635.00
589.00
544.00
501.00
456.00
416.00
382.00
353.00
331.00
319.00
312.00
313.00
320.00
327.00
337.00
345.00
348.00
350.00
351.00
348.00
349.00
349.00
345.00
347.00
346.00
343.00
344.00
345.00
344.00
345.00
345.00
343.00
347.00
347.00
347.00
348.00
348.00
346.00
348.00
346.00
345.00
345.00
345.00
348.00
351.00
351.00
352.00
354.00
350.00
351.00
351.00
350.00
351.00
352.00
352.00
356.00
357.00
356.00
357.00
358.00
356.00
359.00
358.00
357.00
359.00
359.00
359.00
360.00
358.00
357.00
362.00
361.00
363.00
366.00
364.00
365.00
368.00
366.00
369.00
372.00
370.00
371.00
373.00
372.00
372.00
374.00
373.00
375.00
378.00
378.00
380.00
382.00
382.00
386.00
387.00
388.00
390.00
391.00
390.00
395.00
393.00
394.00
396.00
397.00
398.00
401.00
402.00
402.00
406.00
404.00
405.00
407.00
406.00
407.00
408.00
407.00
408.00
406.00
405.00
405.00
405.00
404.00
405.00
402.00
399.00
397.00
393.00
389.00
387.00
383.00
377.00
377.00
372.00
365.00
364.00
361.00
356.00
357.00
353.00
349.00
349.00
344.00
340.00
337.00
337.00
336.00
337.00
334.00
332.00
331.00
330.00
329.00
330.00
328.00
330.00
331.00
327.00
329.00
329.00
327.00
329.00
329.00
326.00
330.00
329.00
327.00
327.00
327.00
326.00
329.00
329.00
329.00
330.00
330.00
329.00
328.00
330.00
331.00
335.00
331.00
333.00
335.00
333.00
334.00
337.00
333.00
335.00
336.00
335.00
336.00
336.00
334.00
335.00
336.00
335.00
337.00
339.00
338.00
341.00
341.00
339.00
343.00
340.00
339.00
341.00
338.00
337.00
342.00
340.00
340.00
343.00
342.00
342.00
343.00
342.00
340.00
341.00
339.00
340.00
342.00
341.00
341.00
345.00
342.00
343.00
343.00
340.00
341.00
342.00
340.00
342.00
341.00
340.00
342.00
343.00
343.00
346.00
346.00
344.00
347.00
344.00
341.00
343.00
343.00
340.00
344.00
343.00
342.00
345.00
344.00
345.00
346.00
346.00
346.00
347.00
344.00
344.00
344.00
344.00
345.00
345.00
344.00
347.00
347.00
345.00
347.00
348.00
345.00
348.00
347.00
345.00
346.00
345.00
342.00
344.00
345.00
345.00
350.00
349.00
348.00
349.00
347.00
345.00
346.00
344.00
344.00
346.00
344.00
347.00
349.00
349.00
352.00
354.00
351.00
352.00
352.00
351.00
352.00
355.00
356.00
362.00
365.00
366.00
372.00
376.00
378.00
383.00
383.00
382.00
382.00
379.00
380.00
384.00
386.00
389.00
394.00
393.00
395.00
394.00
390.00
387.00
384.00
380.00
376.00
374.00
367.00
363.00
360.00
356.00
356.00
356.00
351.00
349.00
348.00
346.00
345.00
346.00
344.00
346.00
345.00
344.00
346.00
346.00
345.00
347.00
345.00
344.00
348.00
346.00
346.00
349.00
348.00
346.00
346.00
338.00
332.00
333.00
335.00
340.00
349.00
358.00
372.00
387.00
404.00
431.00
466.00
511.00
567.00
620.00
663.00
687.00
677.00
647.00
611.00
569.00
525.00
490.00
449.00
412.00
384.00
358.00
338.00
325.00
319.00
318.00
325.00
329.00
335.00
341.00
346.00
346.00
349.00
347.00
346.00
347.00
344.00
346.00
349.00
348.00
350.00
351.00
347.00
349.00
348.00
346.00
348.00
349.00
347.00
351.00
351.00
351.00
352.00
353.00
352.00
356.00
354.00
354.00
354.00
353.00
352.00
354.00
354.00
356.00
359.00
356.00
357.00
358.00
356.00
357.00
359.00
358.00
358.00
359.00
358.00
359.00
360.00
360.00
362.00
363.00
361.00
362.00
365.00
365.00
367.00
367.00
367.00
371.00
369.00
368.00
370.00
369.00
369.00
374.00
373.00
376.00
378.00
377.00
378.00
379.00
378.00
378.00
381.00
380.00
382.00
386.00
386.00
387.00
388.00
388.00
390.00
389.00
389.00
392.00
394.00
396.00
400.00
400.00
400.00
401.00
400.00
399.00
401.00
401.00
401.00
406.00
404.00
402.00
405.00
404.00
404.00
405.00
404.00
404.00
403.00
399.00
398.00
397.00
395.00
394.00
391.00
386.00
384.00
382.00
377.00
375.00
372.00
367.00
367.00
363.00
358.00
357.00
355.00
351.00
353.00
350.00
345.00
345.00
341.00
337.00
337.00
336.00
334.00
337.00
336.00
335.00
336.00
335.00
335.00
336.00
335.00
336.00
337.00
332.00
331.00
331.00
331.00
332.00
334.00
332.00
335.00
336.00
334.00
336.00
338.00
335.00
338.00
338.00
336.00
337.00
338.00
337.00
339.00
338.00
338.00
341.00
340.00
341.00
344.00
342.00
341.00
345.00
342.00
342.00
343.00
341.00
341.00
344.00
344.00
346.00
348.00
346.00
347.00
348.00
345.00
345.00
345.00
343.00
346.00
344.00
344.00
346.00
344.00
344.00
348.00
346.00
346.00
348.00
346.00
345.00
346.00
344.00
342.00
345.00
343.00
342.00
345.00
344.00
344.00
347.00
345.00
347.00
347.00
345.00
346.00
348.00
345.00
347.00
346.00
345.00
347.00
348.00
348.00
349.00
348.00
344.00
348.00
346.00
344.00
346.00
346.00
343.00
348.00
346.00
343.00
345.00
346.00
346.00
348.00
346.00
345.00
347.00
345.00
345.00
347.00
347.00
346.00
348.00
347.00
350.00
350.00
346.00
347.00
348.00
345.00
348.00
348.00
346.00
350.00
350.00
350.00
352.00
351.00
349.00
352.00
351.00
350.00
352.00
352.00
350.00
353.00
351.00
352.00
356.00
356.00
361.00
367.00
369.00
375.00
379.00
379.00
381.00
382.00
379.00
380.00
380.00
380.00
385.00
388.00
389.00
392.00
396.00
396.00
396.00
393.00
388.00
387.00
383.00
378.00
375.00
369.00
363.00
363.00
358.00
356.00
356.00
351.00
348.00
347.00
346.00
345.00
347.00
344.00
344.00
346.00
344.00
344.00
346.00
343.00
344.00
346.00
345.00
346.00
346.00
344.00
348.00
346.00
342.00
340.00
334.00
329.00
332.00
334.00
339.00
352.00
361.00
375.00
392.00
411.00
438.00
479.00
525.00
580.00
639.00
680.00
695.00
683.00
649.00
610.00
566.00
522.00
480.00
441.00
405.00
377.00
353.00
334.00
325.00
319.00
318.00
325.00
331.00
337.00
346.00
349.00
349.00
351.00
352.00
349.00
349.00
348.00
347.00
350.00
349.00
348.00
350.00
349.00
348.00
350.00
348.00
348.00
349.00
349.00
351.00
352.00
352.00
354.00
356.00
353.00
354.00
356.00
354.00
355.00
355.00
354.00
358.00
357.00
356.00
357.00
357.00
356.00
361.00
360.00
359.00
361.00
363.00
363.00
365.00
363.00
363.00
366.00
362.00
362.00
363.00
362.00
364.00
367.00
366.00
368.00
369.00
367.00
368.00
371.00
371.00
373.00
374.00
374.00
376.00
377.00
377.00
377.00
378.00
378.00
383.00
382.00
383.00
385.00
385.00
387.00
390.00
390.00
392.00
394.00
393.00
393.00
396.00
395.00
397.00
401.00
400.00
400.00
403.00
402.00
403.00
404.00
405.00
408.00
407.00
407.00
408.00
409.00
409.00
412.00
408.00
407.00
408.00
407.00
407.00
409.00
406.00
401.00
403.00
398.00
394.00
392.00
388.00
382.00
382.00
377.00
374.00
373.00
368.00
364.00
361.00
356.00
353.00
352.00
348.00
348.00
346.00
344.00
342.00
341.00
338.00
341.00
339.00
336.00
336.00
336.00
333.00
336.00
333.00
333.00
335.00
333.00
330.00
332.00
331.00
331.00
335.00
334.00
334.00
335.00
334.00
334.00
334.00
333.00
335.00
338.00
334.00
336.00
336.00
334.00
336.00
338.00
336.00
338.00
341.00
339.00
340.00
341.00
338.00
341.00
341.00
339.00
341.00
343.00
341.00
343.00
343.00
342.00
346.00
342.00
342.00
345.00
343.00
343.00
346.00
343.00
343.00
344.00
342.00
344.00
347.00
345.00
344.00
346.00
344.00
344.00
345.00
344.00
344.00
346.00
345.00
347.00
346.00
345.00
347.00
347.00
346.00
350.00
347.00
345.00
347.00
346.00
345.00
345.00
344.00
342.00
347.00
345.00
345.00
347.00
346.00
345.00
348.00
345.00
346.00
349.00
347.00
347.00
347.00
344.00
345.00
345.00
344.00
346.00
346.00
346.00
346.00
346.00
345.00
350.00
349.00
347.00
350.00
350.00
347.00
351.00
349.00
347.00
349.00
349.00
350.00
351.00
350.00
350.00
353.00
350.00
350.00
350.00
348.00
348.00
348.00
348.00
351.00
352.00
350.00
353.00
355.00
353.00
355.00
355.00
351.00
354.00
354.00
352.00
353.00
353.00
350.00
353.00
353.00
352.00
354.00
355.00
352.00
355.00
354.00
354.00
356.00
354.00
356.00
358.00
359.00
361.00
367.00
369.00
375.00
380.00
383.00
387.00
391.00
391.00
393.00
393.00
390.00
391.00
394.00
394.00
400.00
403.00
404.00
407.00
407.00
405.00
402.00
397.00
392.00
391.00
383.00
378.00
374.00
368.00
365.00
365.00
361.00
357.00
357.00
352.00
350.00
351.00
348.00
348.00
351.00
349.00
349.00
351.00
350.00
352.00
351.00
350.00
351.00
349.00
347.00
347.00
347.00
347.00
349.00
346.00
341.00
339.00
334.00
333.00
338.00
341.00
345.00
359.00
372.00
390.00
416.00
448.00
495.00
553.00
618.00
684.00
719.00
717.00
712.00
682.00
638.00
590.00
537.00
484.00
437.00
393.00
358.00
336.00
323.00
315.00
322.00
327.00
333.00
342.00
348.00
349.00
354.00
354.00
352.00
354.00
351.00
349.00
350.00
348.00
347.00
349.00
346.00
344.00
344.00
343.00
346.00
348.00
347.00
350.00
352.00
349.00
351.00
352.00
350.00
352.00
350.00
348.00
352.00
352.00
352.00
355.00
357.00
357.00
360.00
359.00
357.00
358.00
359.00
358.00
359.00
357.00
356.00
360.00
357.00
358.00
360.00
358.00
360.00
362.00
361.00
363.00
365.00
365.00
367.00
369.00
368.00
370.00
372.00
370.00
371.00
373.00
372.00
372.00
373.00
373.00
378.00
378.00
378.00
379.00
379.00
380.00
384.00
384.00
385.00
388.00
389.00
391.00
394.00
394.00
396.00
399.00
398.00
399.00
403.00
403.00
404.00
405.00
407.00
410.00
410.00
409.00
411.00
411.00
411.00
415.00
415.00
415.00
416.00
416.00
417.00
420.00
420.00
416.00
419.00
416.00
413.00
413.00
411.00
405.00
402.00
398.00
393.00
389.00
383.00
380.00
377.00
374.00
372.00
368.00
363.00
360.00
358.00
354.00
351.00
348.00
343.00
343.00
340.00
335.00
336.00
336.00
332.00
335.00
333.00
331.00
332.00
329.00
326.00
325.00
324.00
322.00
327.00
327.00
327.00
328.00
327.00
326.00
327.00
325.00
327.00
330.00
328.00
330.00
331.00
329.00
331.00
334.00
330.00
332.00
333.00
332.00
333.00
335.00
334.00
336.00
335.00
332.00
332.00
333.00
332.00
336.00
336.00
335.00
338.00
336.00
335.00
338.00
337.00
338.00
341.00
339.00
340.00
342.00
341.00
341.00
342.00
340.00
339.00
341.00
338.00
339.00
343.00
342.00
343.00
344.00
342.00
343.00
340.00
338.00
340.00
339.00
337.00
340.00
337.00
336.00
338.00
339.00
341.00
343.00
342.00
340.00
343.00
340.00
339.00
341.00
341.00
340.00
343.00
341.00
341.00
343.00
340.00
340.00
340.00
339.00
342.00
341.00
339.00
340.00
340.00
340.00
340.00
339.00
336.00
340.00
338.00
336.00
339.00
341.00
340.00
345.00
343.00
341.00
343.00
342.00
342.00
342.00
340.00
340.00
343.00
341.00
341.00
343.00
343.00
343.00
342.00
344.00
344.00
344.00
341.00
343.00
343.00
342.00
345.00
345.00
342.00
343.00
343.00
341.00
342.00
345.00
342.00
347.00
346.00
344.00
345.00
345.00
343.00
346.00
345.00
345.00
347.00
344.00
344.00
346.00
344.00
345.00
348.00
345.00
346.00
349.00
348.00
351.00
351.00
348.00
350.00
350.00
348.00
351.00
354.00
356.00
363.00
368.00
372.00
378.00
381.00
385.00
386.00
384.00
383.00
386.00
384.00
386.00
389.00
390.00
394.00
398.00
399.00
398.00
397.00
390.00
386.00
384.00
379.00
374.00
371.00
364.00
360.00
359.00
355.00
353.00
351.00
348.00
349.00
346.00
344.00
345.00
345.00
343.00
346.00
343.00
342.00
345.00
342.00
342.00
345.00
344.00
343.00
346.00
344.00
343.00
345.00
343.00
340.00
337.00
330.00
329.00
331.00
331.00
336.00
346.00
356.00
372.00
390.00
413.00
450.00
499.00
557.00
626.00
684.00
717.00
717.00
695.00
653.00
607.00
557.00
503.00
458.00
413.00
375.00
350.00
328.00
316.00
315.00
317.00
324.00
335.00
341.00
345.00
349.00
349.00
348.00
347.00
344.00
344.00
344.00
341.00
342.00
342.00
341.00
344.00
344.00
342.00
345.00
344.00
343.00
344.00
345.00
343.00
346.00
346.00
345.00
348.00
349.00
348.00
349.00
349.00
348.00
351.00
348.00
349.00
350.00
348.00
349.00
353.00
351.00
354.00
356.00
354.00
355.00
356.00
355.00
355.00
355.00
353.00
355.00
357.00
356.00
357.00
358.00
358.00
363.00
362.00
363.00
366.00
365.00
364.00
366.00
364.00
365.00
367.00
368.00
368.00
371.00
371.00
373.00
376.00
375.00
374.00
376.00
376.00
378.00
381.00
382.00
386.00
387.00
387.00
390.00
391.00
392.00
394.00
396.00
397.00
399.00
400.00
400.00
403.00
403.00
403.00
407.00
407.00
407.00
411.00
412.00
412.00
416.00
415.00
414.00
415.00
413.00
413.00
412.00
410.00
408.00
407.00
403.00
401.00
399.00
397.00
395.00
392.00
385.00
384.00
380.00
373.00
370.00
366.00
360.00
359.00
354.00
348.00
349.00
346.00
343.00
342.00
339.00
338.00
336.00
333.00
331.00
331.00
329.00
327.00
325.00
325.00
326.00
327.00
323.00
323.00
325.00
322.00
324.00
325.00
322.00
323.00
323.00
321.00
323.00
324.00
322.00
325.00
325.00
324.00
325.00
326.00
324.00
328.00
327.00
326.00
330.00
327.00
326.00
327.00
325.00
325.00
328.00
326.00
327.00
330.00
330.00
330.00
332.00
330.00
332.00
333.00
331.00
333.00
336.00
336.00
338.00
338.00
337.00
339.00
337.00
335.00
336.00
335.00
333.00
338.00
336.00
335.00
337.00
336.00
336.00
338.00
336.00
335.00
338.00
336.00
335.00
337.00
336.00
336.00
340.00
336.00
335.00
335.00
333.00
334.00
335.00
335.00
336.00
336.00
334.00
335.00
335.00
334.00
337.00
334.00
332.00
336.00
334.00
332.00
335.00
336.00
334.00
337.00
339.00
337.00
338.00
335.00
333.00
334.00
333.00
334.00
336.00
335.00
336.00
338.00
337.00
338.00
340.00
340.00
342.00
342.00
338.00
340.00
341.00
338.00
341.00
340.00
337.00
339.00
340.00
340.00
341.00
341.00
340.00
343.00
342.00
341.00
342.00
341.00
340.00
343.00
343.00
342.00
344.00
341.00
341.00
342.00
340.00
342.00
346.00
343.00
344.00
344.00
339.00
338.00
337.00
335.00
338.00
339.00
338.00
341.00
344.00
343.00
347.00
347.00
348.00
351.00
352.00
355.00
358.00
359.00
360.00
366.00
368.00
372.00
377.00
377.00
378.00
380.00
377.00
377.00
378.00
378.00
380.00
384.00
386.00
390.00
390.00
385.00
383.00
382.00
379.00
376.00
370.00
364.00
363.00
357.00
354.00
355.00
353.00
348.00
350.00
344.00
345.00
346.00
342.00
341.00
344.00
341.00
339.00
342.00
339.00
337.00
339.00
339.00
341.00
345.00
347.00
347.00
347.00
344.00
344.00
340.00
334.00
330.00
328.00
328.00
334.00
341.00
349.00
364.00
378.00
396.00
426.00
460.00
506.00
562.00
618.00
661.00
688.00
680.00
651.00
611.00
565.00
522.00
479.00
438.00
402.00
373.00
348.00
329.00
319.00
313.00
316.00
322.00
328.00
338.00
343.00
344.00
347.00
346.00
343.00
346.00
346.00
345.00
349.00
348.00
347.00
347.00
347.00
343.00
345.00
346.00
344.00
345.00
345.00
346.00
346.00
344.00
346.00
349.00
346.00
348.00
349.00
347.00
349.00
351.00
348.00
351.00
352.00
350.00
352.00
354.00
352.00
355.00
355.00
353.00
353.00
355.00
353.00
355.00
357.00
356.00
360.00
358.00
359.00
362.00
361.00
360.00
363.00
361.00
361.00
364.00
363.00
364.00
366.00
364.00
363.00
367.00
364.00
365.00
368.00
368.00
370.00
373.00
374.00
377.00
376.00
377.00
379.00
379.00
379.00
384.00
383.00
384.00
385.00
385.00
386.00
387.00
387.00
387.00
393.00
392.00
393.00
397.00
398.00
398.00
401.00
399.00
401.00
402.00
402.00
403.00
403.00
402.00
403.00
403.00
403.00
405.00
406.00
406.00
405.00
403.00
400.00
400.00
396.00
392.00
389.00
386.00
381.00
383.00
380.00
377.00
376.00
371.00
367.00
364.00
360.00
357.00
357.00
352.00
351.00
349.00
346.00
343.00
341.00
338.00
339.00
338.00
335.00
334.00
333.00
331.00
334.00
336.00
333.00
335.00
335.00
332.00
333.00
331.00
328.00
331.00
329.00
326.00
328.00
327.00
326.00
332.00
332.00
333.00
337.00
335.00
336.00
338.00
337.00
337.00
339.00
336.00
336.00
336.00
335.00
336.00
337.00
338.00
342.00
343.00
340.00
341.00
343.00
340.00
342.00
343.00
340.00
342.00
340.00
339.00
341.00
340.00
340.00
346.00
345.00
346.00
348.00
347.00
346.00
347.00
347.00
346.00
348.00
344.00
343.00
344.00
342.00
342.00
345.00
342.00
343.00
347.00
347.00
348.00
348.00
347.00
350.00
349.00
346.00
346.00
345.00
343.00
347.00
344.00
343.00
348.00
347.00
347.00
350.00
350.00
348.00
351.00
348.00
346.00
348.00
348.00
348.00
349.00
348.00
349.00
350.00
349.00
349.00
350.00
349.00
349.00
349.00
348.00
350.00
349.00
347.00
348.00
348.00
345.00
350.00
348.00
346.00
350.00
350.00
348.00
350.00
349.00
350.00
351.00
349.00
350.00
351.00
351.00
350.00
351.00
350.00
346.00
348.00
347.00
350.00
353.00
354.00
357.00
361.00
361.00
365.00
369.00
373.00
379.00
380.00
382.00
385.00
382.00
380.00
381.00
383.00
385.00
391.00
394.00
398.00
401.00
401.00
397.00
393.00
387.00
384.00
383.00
378.00
374.00
370.00
364.00
361.00
361.00
358.00
357.00
356.00
350.00
350.00
350.00
347.00
348.00
347.00
345.00
346.00
347.00
345.00
346.00
346.00
344.00
348.00
345.00
344.00
346.00
344.00
344.00
349.00
345.00
341.00
338.00
332.00
331.00
337.00
342.00
350.00
363.00
376.00
394.00
420.00
451.00
493.00
544.00
598.00
650.00
681.00
688.00
672.00
636.00
595.00
557.00
512.00
470.00
433.00
399.00
371.00
350.00
332.00
321.00
321.00
320.00
324.00
332.00
336.00
340.00
347.00
347.00
348.00
349.00
347.00
347.00
349.00
347.00
347.00
347.00
344.00
345.00
346.00
345.00
345.00
346.00
344.00
349.00
348.00
346.00
349.00
350.00
348.00
352.00
352.00
351.00
354.00
352.00
353.00
354.00
355.00
354.00
357.00
355.00
354.00
356.00
356.00
357.00
359.00
358.00
359.00
360.00
357.00
359.00
361.00
358.00
360.00
362.00
361.00
362.00
363.00
363.00
366.00
368.00
367.00
369.00
367.00
365.00
367.00
368.00
367.00
369.00
370.00
371.00
375.00
373.00
375.00
374.00
371.00
371.00
375.00
374.00
377.00
381.00
381.00
383.00
387.00
387.00
389.00
390.00
390.00
391.00
393.00
394.00
395.00
396.00
395.00
398.00
397.00
397.00
398.00
396.00
396.00
399.00
398.00
398.00
398.00
397.00
399.00
400.00
401.00
401.00
402.00
399.00
398.00
397.00
393.00
390.00
391.00
387.00
384.00
382.00
378.00
376.00
372.00
368.00
367.00
363.00
359.00
357.00
354.00
349.00
348.00
347.00
344.00
347.00
344.00
342.00
344.00
343.00
340.00
344.00
341.00
337.00
339.00
336.00
336.00
337.00
335.00
334.00
334.00
333.00
334.00
336.00
336.00
338.00
337.00
336.00
339.00
339.00
337.00
339.00
340.00
337.00
342.00
341.00
338.00
340.00
341.00
339.00
340.00
339.00
338.00
339.00
341.00
342.00
343.00
343.00
342.00
344.00
343.00
344.00
345.00
343.00
345.00
347.00
347.00
350.00
352.00
349.00
349.00
349.00
346.00
345.00
344.00
343.00
345.00
345.00
343.00
344.00
346.00
344.00
348.00
347.00
347.00
347.00
346.00
345.00
347.00
346.00
345.00
349.00
347.00
349.00
350.00
348.00
347.00
346.00
345.00
344.00
347.00
345.00
345.00
347.00
347.00
348.00
350.00
348.00
347.00
347.00
345.00
347.00
347.00
345.00
349.00
347.00
345.00
347.00
346.00
344.00
348.00
345.00
342.00
347.00
344.00
345.00
347.00
347.00
347.00
350.00
348.00
346.00
348.00
348.00
349.00
349.00
349.00
350.00
349.00
348.00
350.00
350.00
349.00
350.00
349.00
347.00
350.00
348.00
346.00
348.00
349.00
348.00
356.00
354.00
355.00
360.00
362.00
362.00
368.00
371.00
375.00
380.00
382.00
383.00
384.00
383.00
384.00
385.00
386.00
389.00
392.00
395.00
399.00
401.00
399.00
398.00
394.00
387.00
385.00
382.00
375.00
373.00
367.00
361.00
362.00
357.00
355.00
353.00
352.00
348.00
349.00
346.00
344.00
345.00
345.00
344.00
345.00
344.00
346.00
347.00
346.00
346.00
348.00
344.00
345.00
346.00
344.00
346.00
344.00
338.00
335.00
333.00
330.00
335.00
340.00
345.00
356.00
369.00
384.00
405.00
432.00
470.00
520.00
571.00
628.00
673.00
690.00
683.00
655.00
610.00
568.00
526.00
482.00
444.00
410.00
380.00
356.00
338.00
323.00
317.00
318.00
320.00
326.00
332.00
337.00
340.00
344.00
345.00
347.00
346.00
345.00
348.00
346.00
345.00
346.00
345.00
344.00
347.00
346.00
345.00
349.00
347.00
345.00
346.00
345.00
343.00
347.00
347.00
349.00
352.00
351.00
352.00
352.00
349.00
350.00
351.00
351.00
353.00
354.00
354.00
355.00
355.00
353.00
358.00
358.00
356.00
359.00
359.00
357.00
361.00
360.00
360.00
363.00
361.00
362.00
363.00
363.00
363.00
365.00
363.00
365.00
366.00
365.00
366.00
367.00
368.00
370.00
371.00
370.00
373.00
375.00
374.00
378.00
379.00
377.00
380.00
380.00
380.00
382.00
383.00
383.00
387.00
386.00
387.00
389.00
389.00
389.00
392.00
393.00
394.00
397.00
396.00
398.00
400.00
398.00
399.00
401.00
399.00
401.00
402.00
401.00
402.00
404.00
402.00
406.00
405.00
404.00
404.00
402.00
398.00
398.00
396.00
393.00
392.00
387.00
384.00
382.00
378.00
374.00
373.00
366.00
363.00
363.00
358.00
356.00
354.00
350.00
348.00
349.00
344.00
343.00
344.00
342.00
342.00
342.00
339.00
338.00
337.00
334.00
335.00
334.00
332.00
335.00
333.00
333.00
334.00
334.00
332.00
333.00
332.00
331.00
332.00
332.00
332.00
334.00
333.00
332.00
335.00
333.00
333.00
336.00
334.00
335.00
336.00
335.00
335.00
336.00
335.00
336.00
337.00
337.00
339.00
339.00
338.00
341.00
340.00
338.00
341.00
341.00
339.00
344.00
342.00
340.00
342.00
342.00
341.00
343.00
344.00
344.00
347.00
345.00
345.00
346.00
346.00
345.00
347.00
344.00
344.00
346.00
343.00
344.00
345.00
344.00
345.00
346.00
345.00
345.00
346.00
344.00
345.00
344.00
341.00
344.00
343.00
341.00
344.00
345.00
343.00
347.00
345.00
343.00
343.00
342.00
342.00
344.00
342.00
343.00
346.00
343.00
345.00
347.00
345.00
346.00
347.00
345.00
347.00
347.00
344.00
345.00
347.00
346.00
348.00
348.00
346.00
347.00
348.00
346.00
347.00
346.00
345.00
349.00
348.00
345.00
346.00
345.00
344.00
349.00
347.00
349.00
351.00
348.00
348.00
349.00
347.00
347.00
350.00
348.00
348.00
350.00
348.00
348.00
349.00
348.00
350.00
351.00
349.00
350.00
351.00
350.00
353.00
352.00
352.00
353.00
352.00
353.00
355.00
356.00
357.00
364.00
365.00
368.00
373.00
376.00
379.00
384.00
386.00
389.00
389.00
388.00
390.00
393.00
395.00
398.00
399.00
400.00
404.00
403.00
401.00
398.00
393.00
385.00
385.00
379.00
372.00
369.00
365.00
359.00
362.00
358.00
355.00
356.00
352.00
350.00
349.00
348.00
346.00
347.00
345.00
345.00
345.00
345.00
344.00
344.00
342.00
344.00
345.00
343.00
344.00
346.00
344.00
346.00
345.00
340.00
340.00
335.00
332.00
336.00
341.00
345.00
358.00
369.00
386.00
407.00
434.00
473.00
525.00
586.00
652.00
705.00
714.00
709.00
682.00
635.00
588.00
538.00
484.00
439.00
399.00
363.00
337.00
321.00
309.00
310.00
316.00
321.00
332.00
341.00
345.00
351.00
351.00
349.00
353.00
350.00
349.00
349.00
347.00
345.00
348.00
345.00
344.00
345.00
344.00
343.00
345.00
343.00
343.00
346.00
344.00
345.00
348.00
348.00
349.00
352.00
351.00
353.00
353.00
351.00
353.00
353.00
351.00
354.00
353.00
353.00
355.00
355.00
355.00
356.00
356.00
355.00
359.00
357.00
357.00
359.00
359.00
358.00
362.00
360.00
360.00
362.00
361.00
363.00
365.00
366.00
368.00
368.00
369.00
371.00
371.00
370.00
372.00
371.00
371.00
376.00
376.00
376.00
380.00
381.00
380.00
386.00
386.00
384.00
386.00
388.00
388.00
390.00
390.00
391.00
394.00
394.00
397.00
401.00
402.00
404.00
405.00
405.00
407.00
408.00
407.00
409.00
411.00
410.00
414.00
414.00
411.00
412.00
412.00
411.00
412.00
412.00
410.00
411.00
408.00
406.00
405.00
403.00
399.00
398.00
395.00
391.00
388.00
383.00
379.00
375.00
369.00
366.00
363.00
357.00
355.00
353.00
349.00
346.00
345.00
341.00
341.00
340.00
336.00
337.00
336.00
333.00
334.00
332.00
329.00
329.00
328.00
327.00
327.00
326.00
324.00
327.00
324.00
325.00
325.00
324.00
324.00
329.00
327.00
326.00
328.00
326.00
326.00
328.00
326.00
327.00
329.00
326.00
326.00
328.00
328.00
330.00
331.00
330.00
334.00
334.00
333.00
334.00
334.00
333.00
336.00
335.00
336.00
339.00
337.00
337.00
341.00
341.00
340.00
345.00
342.00
340.00
341.00
339.00
339.00
340.00
340.00
342.00
343.00
343.00
343.00
344.00
344.00
345.00
345.00
343.00
345.00
345.00
342.00
344.00
344.00
342.00
346.00
345.00
342.00
344.00
344.00
341.00
344.00
342.00
341.00
345.00
343.00
343.00
345.00
344.00
343.00
345.00
343.00
342.00
344.00
342.00
343.00
343.00
340.00
342.00
342.00
340.00
342.00
343.00
342.00
344.00
344.00
342.00
345.00
344.00
342.00
344.00
345.00
343.00
347.00
345.00
345.00
346.00
346.00
346.00
346.00
344.00
344.00
347.00
344.00
346.00
347.00
345.00
346.00
348.00
345.00
346.00
346.00
344.00
344.00
345.00
344.00
346.00
346.00
344.00
345.00
346.00
343.00
344.00
345.00
344.00
349.00
348.00
349.00
351.00
350.00
348.00
352.00
349.00
349.00
350.00
349.00
348.00
349.00
347.00
347.00
350.00
348.00
349.00
350.00
348.00
348.00
349.00
348.00
351.00
351.00
349.00
350.00
350.00
349.00
352.00
351.00
349.00
351.00
351.00
351.00
352.00
352.00
350.00
354.00
351.00
350.00
353.00
353.00
351.00
355.00
352.00
353.00
353.00
351.00
352.00
352.00
352.00
354.00
355.00
352.00
352.00
354.00
355.00
358.00
361.00
361.00
367.00
370.00
375.00
380.00
385.00
386.00
392.00
392.00
390.00
391.00
389.00
389.00
391.00
392.00
393.00
397.00
397.00
398.00
396.00
393.00
390.00
386.00
381.00
378.00
375.00
369.00
366.00
364.00
359.00
358.00
356.00
351.00
350.00
349.00
347.00
348.00
349.00
347.00
350.00
349.00
347.00
348.00
347.00
345.00
349.00
348.00
346.00
349.00
346.00
346.00
348.00
346.00
346.00
346.00
339.00
335.00
332.00
334.00
337.00
342.00
348.00
361.00
377.00
394.00
420.00
459.00
508.00
573.00
640.00
697.00
721.00
717.00
702.00
666.00
616.00
563.00
513.00
459.00
413.00
378.00
347.00
327.00
318.00
316.00
321.00
331.00
337.00
344.00
351.00
352.00
351.00
351.00
347.00
345.00
345.00
342.00
344.00
345.00
342.00
345.00
344.00
343.00
342.00
344.00
343.00
346.00
343.00
342.00
346.00
345.00
345.00
349.00
349.00
348.00
351.00
349.00
348.00
350.00
349.00
349.00
351.00
352.00
353.00
354.00
352.00
353.00
355.00
354.00
356.00
356.00
355.00
357.00
356.00
354.00
357.00
358.00
356.00
361.00
360.00
359.00
361.00
362.00
361.00
364.00
364.00
366.00
369.00
369.00
370.00
371.00
370.00
370.00
373.00
373.00
373.00
375.00
374.00
377.00
378.00
378.00
382.00
383.00
381.00
384.00
384.00
383.00
387.00
387.00
388.00
393.00
394.00
397.00
399.00
400.00
399.00
401.00
400.00
400.00
402.00
404.00
405.00
408.00
408.00
410.00
412.00
410.00
412.00
414.00
412.00
414.00
415.00
412.00
413.00
412.00
408.00
407.00
406.00
401.00
399.00
395.00
390.00
386.00
382.00
378.00
374.00
369.00
364.00
364.00
358.00
355.00
354.00
349.00
344.00
345.00
339.00
337.00
336.00
334.00
331.00
332.00
329.00
328.00
327.00
323.00
323.00
324.00
323.00
322.00
323.00
321.00
322.00
321.00
319.00
321.00
321.00
320.00
323.00
322.00
321.00
322.00
321.00
320.00
322.00
322.00
320.00
325.00
324.00
324.00
327.00
328.00
325.00
329.00
327.00
327.00
328.00
326.00
328.00
330.00
330.00
332.00
334.00
332.00
333.00
335.00
336.00
336.00
337.00
334.00
338.00
337.00
334.00
337.00
338.00
335.00
340.00
338.00
337.00
339.00
337.00
337.00
339.00
339.00
339.00
342.00
340.00
339.00
341.00
340.00
341.00
342.00
339.00
341.00
341.00
337.00
339.00
340.00
337.00
341.00
341.00
337.00
339.00
339.00
337.00
338.00
339.00
338.00
342.00
340.00
338.00
339.00
339.00
336.00
338.00
338.00
338.00
341.00
338.00
340.00
340.00
338.00
338.00
340.00
337.00
338.00
340.00
339.00
340.00
342.00
340.00
341.00
340.00
337.00
338.00
339.00
338.00
340.00
340.00
338.00
341.00
339.00
339.00
341.00
341.00
341.00
345.00
342.00
341.00
343.00
341.00
343.00
343.00
341.00
341.00
344.00
341.00
342.00
344.00
343.00
342.00
344.00
341.00
342.00
343.00
343.00
343.00
344.00
342.00
345.00
343.00
342.00
344.00
344.00
342.00
345.00
345.00
343.00
348.00
346.00
344.00
347.00
347.00
346.00
350.00
347.00
346.00
347.00
345.00
344.00
345.00
345.00
347.00
348.00
347.00
348.00
346.00
345.00
346.00
345.00
343.00
347.00
346.00
345.00
348.00
348.00
346.00
350.00
348.00
345.00
348.00
349.00
348.00
350.00
349.00
349.00
353.00
351.00
352.00
353.00
353.00
353.00
354.00
352.00
354.00
354.00
351.00
352.00
352.00
350.00
353.00
355.00
351.00
352.00
353.00
351.00
352.00
353.00
351.00
354.00
354.00
353.00
354.00
355.00
353.00
357.00
357.00
357.00
360.00
361.00
365.00
371.00
374.00
379.00
384.00
383.00
385.00
386.00
382.00
383.00
382.00
382.00
386.00
390.00
392.00
393.00
395.00
392.00
392.00
389.00
384.00
379.00
375.00
369.00
366.00
361.00
357.00
359.00
355.00
353.00
354.00
351.00
351.00
353.00
349.00
349.00
351.00
348.00
348.00
351.00
350.00
350.00
351.00
349.00
349.00
350.00
350.00
350.00
351.00
349.00
351.00
347.00
342.00
339.00
335.00
334.00
341.00
345.00
352.00
366.00
378.00
394.00
417.00
446.00
488.00
544.00
599.00
654.00
692.00
698.00
677.00
640.00
596.00
554.00
509.00
465.00
427.00
393.00
365.00
344.00
330.00
320.00
320.00
324.00
329.00
337.00
343.00
346.00
352.00
352.00
349.00
352.00
350.00
348.00
351.00
350.00
349.00
351.00
348.00
347.00
347.00
346.00
345.00
348.00
346.00
347.00
349.00
349.00
349.00
350.00
347.00
350.00
351.00
348.00
351.00
349.00
349.00
352.00
352.00
351.00
354.00
353.00
351.00
353.00
354.00
352.00
356.00
356.00
355.00
356.00
356.00
356.00
357.00
357.00
358.00
361.00
360.00
362.00
363.00
363.00
365.00
367.00
365.00
367.00
367.00
366.00
366.00
366.00
365.00
368.00
369.00
369.00
371.00
373.00
370.00
373.00
374.00
374.00
378.00
378.00
380.00
382.00
383.00
384.00
388.00
387.00
388.00
390.00
390.00
391.00
394.00
395.00
397.00
400.00
399.00
400.00
402.00
403.00
405.00
407.00
407.00
409.00
408.00
408.00
411.00
409.00
408.00
411.00
408.00
407.00
407.00
407.00
406.00
406.00
402.00
399.00
400.00
397.00
394.00
393.00
388.00
383.00
382.00
375.00
370.00
369.00
364.00
361.00
358.00
354.00
351.00
349.00
345.00
344.00
343.00
341.00
338.00
336.00
334.00
337.00
334.00
331.00
333.00
333.00
329.00
332.00
330.00
327.00
329.00
327.00
326.00
328.00
328.00
328.00
331.00
328.00
327.00
328.00
327.00
326.00
329.00
328.00
328.00
329.00
326.00
327.00
328.00
327.00
331.00
331.00
329.00
331.00
331.00
330.00
331.00
332.00
331.00
335.00
335.00
334.00
335.00
335.00
332.00
335.00
334.00
336.00
340.00
337.00
339.00
341.00
339.00
340.00
342.00
339.00
341.00
342.00
340.00
343.00
344.00
342.00
344.00
343.00
339.00
340.00
341.00
340.00
342.00
343.00
342.00
344.00
344.00
343.00
344.00
342.00
341.00
344.00
342.00
342.00
344.00
343.00
342.00
345.00
343.00
343.00
345.00
342.00
343.00
345.00
343.00
344.00
346.00
344.00
344.00
346.00
344.00
345.00
346.00
345.00
349.00
347.00
344.00
345.00
344.00
342.00
345.00
342.00
341.00
344.00
341.00
341.00
345.00
343.00
343.00
348.00
346.00
346.00
348.00
345.00
344.00
344.00
344.00
346.00
346.00
344.00
345.00
347.00
346.00
348.00
347.00
345.00
347.00
347.00
344.00
347.00
346.00
344.00
349.00
348.00
346.00
348.00
348.00
348.00
348.00
348.00
348.00
350.00
348.00
348.00
349.00
348.00
349.00
352.00
351.00
352.00
352.00
351.00
352.00
352.00
349.00
351.00
350.00
346.00
348.00
348.00
347.00
351.00
351.00
349.00
354.00
352.00
351.00
353.00
353.00
352.00
355.00
356.00
357.00
361.00
366.00
370.00
374.00
377.00
381.00
384.00
383.00
384.00
384.00
381.00
382.00
383.00
383.00
389.00
392.00
393.00
393.00
392.00
387.00
386.00
383.00
378.00
375.00
372.00
366.00
363.00
360.00
358.00
361.00
356.00
354.00
354.00
351.00
349.00
352.00
348.00
348.00
349.00
349.00
349.00
350.00
348.00
348.00
350.00
347.00
347.00
349.00
348.00
350.00
350.00
348.00
351.00
348.00
343.00
340.00
338.00
339.00
347.00
350.00
358.00
371.00
383.00
400.00
425.00
456.00
500.00
555.00
607.00
654.00
684.00
684.00
660.00
626.00
583.00
543.00
502.00
462.00
427.00
394.00
369.00
350.00
335.00
325.00
324.00
327.00
333.00
339.00
344.00
346.00
354.00
353.00
352.00
354.00
353.00
350.00
353.00
351.00
349.00
352.00
350.00
350.00
351.00
351.00
352.00
355.00
354.00
354.00
355.00
354.00
354.00
355.00
355.00
358.00
358.00
355.00
357.00
358.00
355.00
359.00
358.00
355.00
357.00
357.00
357.00
360.00
360.00
359.00
362.00
361.00
361.00
362.00
362.00
361.00
364.00
363.00
363.00
366.00
364.00
365.00
367.00
365.00
367.00
368.00
364.00
366.00
368.00
369.00
372.00
374.00
373.00
377.00
377.00
376.00
377.00
378.00
376.00
379.00
379.00
380.00
382.00
382.00
384.00
388.00
388.00
389.00
393.00
391.00
393.00
395.00
394.00
396.00
397.00
396.00
398.00
400.00
399.00
399.00
401.00
402.00
404.00
405.00
404.00
407.00
408.00
408.00
410.00
408.00
406.00
409.00
406.00
404.00
405.00
403.00
401.00
404.00
400.00
398.00
399.00
393.00
390.00
389.00
384.00
379.00
377.00
372.00
369.00
369.00
367.00
363.00
361.00
358.00
357.00
354.00
349.00
347.00
345.00
343.00
344.00
342.00
341.00
342.00
340.00
336.00
337.00
336.00
333.00
337.00
335.00
333.00
335.00
334.00
332.00
333.00
331.00
331.00
335.00
334.00
335.00
335.00
334.00
335.00
337.00
335.00
335.00
336.00
333.00
335.00
336.00
334.00
338.00
338.00
335.00
338.00
338.00
336.00
339.00
340.00
341.00
345.00
345.00
343.00
344.00
343.00
342.00
345.00
343.00
343.00
344.00
342.00
342.00
343.00
342.00
343.00
345.00
342.00
343.00
344.00
342.00
344.00
345.00
343.00
344.00
344.00
342.00
344.00
346.00
343.00
346.00
346.00
344.00
345.00
347.00
347.00
347.00
346.00
344.00
347.00
344.00
344.00
346.00
344.00
344.00
347.00
343.00
345.00
346.00
344.00
343.00
346.00
345.00
347.00
347.00
344.00
344.00
345.00
343.00
343.00
345.00
344.00
348.00
346.00
345.00
347.00
345.00
344.00
347.00
346.00
344.00
345.00
344.00
344.00
346.00
344.00
343.00
347.00
346.00
346.00
348.00
347.00
347.00
347.00
347.00
349.00
348.00
347.00
348.00
350.00
349.00
352.00
350.00
349.00
350.00
349.00
348.00
349.00
349.00
347.00
352.00
350.00
348.00
350.00
350.00
349.00
353.00
351.00
351.00
353.00
351.00
352.00
353.00
353.00
352.00
352.00
349.00
349.00
348.00
348.00
349.00
350.00
349.00
352.00
353.00
351.00
353.00
353.00
351.00
354.00
354.00
353.00
357.00
358.00
360.00
364.00
367.00
372.00
379.00
381.00
384.00
387.00
388.00
388.00
388.00
388.00
389.00
391.00
391.00
395.00
399.00
398.00
400.00
397.00
391.00
388.00
386.00
381.00
378.00
374.00
367.00
366.00
363.00
360.00
358.00
356.00
352.00
351.00
352.00
350.00
352.00
348.00
348.00
349.00
347.00
346.00
349.00
346.00
348.00
350.00
349.00
349.00
350.00
348.00
350.00
352.00
349.00
348.00
346.00
340.00
336.00
336.00
336.00
342.00
349.00
359.00
374.00
391.00
413.00
448.00
490.00
547.00
610.00
665.00
703.00
711.00
692.00
653.00
608.00
559.00
513.00
469.00
427.00
393.00
365.00
341.00
325.00
319.00
316.00
322.00
329.00
337.00
345.00
349.00
350.00
353.00
353.00
351.00
353.00
351.00
348.00
352.00
349.00
349.00
351.00
351.00
349.00
353.00
350.00
349.00
351.00
351.00
350.00
351.00
350.00
351.00
353.00
351.00
353.00
354.00
352.00
354.00
354.00
355.00
357.00
357.00
355.00
358.00
358.00
358.00
359.00
359.00
358.00
361.00
362.00
362.00
363.00
364.00
362.00
365.00
363.00
363.00
365.00
365.00
365.00
368.00
367.00
368.00
368.00
368.00
369.00
371.00
370.00
373.00
375.00
373.00
375.00
377.00
376.00
380.00
379.00
380.00
384.00
384.00
383.00
384.00
386.00
385.00
389.00
390.00
390.00
393.00
395.00
395.00
396.00
396.00
398.00
399.00
397.00
400.00
404.00
405.00
409.00
411.00
411.00
412.00
412.00
411.00
413.00
415.00
414.00
416.00
417.00
414.00
416.00
416.00
414.00
414.00
410.00
406.00
407.00
403.00
399.00
397.00
392.00
387.00
386.00
381.00
378.00
376.00
370.00
366.00
365.00
360.00
356.00
355.00
348.00
345.00
344.00
341.00
340.00
340.00
338.00
338.00
336.00
332.00
333.00
332.00
331.00
332.00
331.00
328.00
329.00
327.00
326.00
328.00
326.00
323.00
328.00
326.00
325.00
328.00
328.00
327.00
332.00
330.00
330.00
331.00
328.00
329.00
331.00
330.00
333.00
334.00
333.00
334.00
335.00
335.00
335.00
335.00
333.00
336.00
336.00
335.00
337.00
337.00
335.00
339.00
338.00
338.00
341.00
340.00
340.00
342.00
343.00
343.00
345.00
342.00
340.00
342.00
341.00
342.00
344.00
342.00
345.00
347.00
343.00
345.00
345.00
344.00
345.00
345.00
341.00
343.00
343.00
341.00
344.00
346.00
347.00
348.00
346.00
344.00
344.00
345.00
342.00
344.00
344.00
343.00
346.00
344.00
343.00
344.00
341.00
341.00
344.00
341.00
343.00
345.00
343.00
344.00
345.00
344.00
344.00
345.00
343.00
345.00
347.00
346.00
347.00
344.00
342.00
345.00
342.00
340.00
343.00
343.00
343.00
347.00
344.00
343.00
344.00
342.00
343.00
344.00
344.00
344.00
347.00
346.00
345.00
348.00
347.00
346.00
348.00
345.00
346.00
348.00
346.00
346.00
346.00
344.00
346.00
346.00
345.00
348.00
348.00
347.00
349.00
349.00
346.00
351.00
348.00
347.00
349.00
348.00
346.00
350.00
348.00
346.00
348.00
347.00
348.00
349.00
347.00
349.00
350.00
349.00
349.00
349.00
348.00
350.00
349.00
348.00
352.00
351.00
349.00
351.00
351.00
348.00
351.00
351.00
348.00
351.00
351.00
350.00
352.00
352.00
351.00
355.00
353.00
353.00
354.00
355.00
355.00
356.00
353.00
355.00
356.00
354.00
359.00
363.00
366.00
373.00
379.00
381.00
387.00
391.00
392.00
393.00
391.00
387.00
388.00
387.00
387.00
391.00
394.00
396.00
400.00
398.00
394.00
391.00
387.00
384.00
380.00
375.00
371.00
370.00
363.00
361.00
360.00
357.00
356.00
354.00
350.00
350.00
351.00
347.00
348.00
349.00
347.00
349.00
350.00
348.00
349.00
351.00
348.00
350.00
347.00
345.00
349.00
346.00
346.00
348.00
345.00
339.00
337.00
332.00
332.00
337.00
340.00
348.00
360.00
374.00
393.00
419.00
452.00
500.00
559.00
624.00
685.00
717.00
716.00
708.00
669.00
623.00
576.00
523.00
472.00
430.00
387.00
357.00
337.00
323.00
318.00
323.00
328.00
334.00
345.00
348.00
351.00
355.00
354.00
352.00
352.00
350.00
350.00
349.00
346.00
347.00
347.00
348.00
348.00
348.00
346.00
347.00
348.00
346.00
348.00
349.00
347.00
352.00
351.00
349.00
352.00
352.00
350.00
355.00
353.00
352.00
354.00
353.00
353.00
355.00
354.00
354.00
352.00
353.00
354.00
356.00
357.00
358.00
359.00
359.00
362.00
362.00
360.00
362.00
364.00
362.00
366.00
366.00
364.00
368.00
368.00
367.00
368.00
369.00
368.00
372.00
373.00
373.00
374.00
375.00
375.00
376.00
375.00
377.00
380.00
379.00
382.00
385.00
383.00
386.00
389.00
388.00
390.00
392.00
392.00
394.00
397.00
396.00
398.00
400.00
400.00
402.00
404.00
404.00
409.00
409.00
409.00
413.00
411.00
413.00
416.00
415.00
416.00
420.00
417.00
418.00
419.00
417.00
416.00
416.00
414.00
414.00
413.00
409.00
406.00
403.00
398.00
395.00
392.00
387.00
385.00
379.00
374.00
371.00
367.00
361.00
361.00
356.00
351.00
350.00
345.00
342.00
341.00
337.00
334.00
336.00
332.00
330.00
332.00
330.00
328.00
331.00
328.00
326.00
328.00
326.00
326.00
325.00
324.00
325.00
325.00
323.00
325.00
326.00
325.00
326.00
325.00
323.00
327.00
325.00
323.00
326.00
327.00
325.00
330.00
328.00
327.00
329.00
327.00
327.00
328.00
328.00
330.00
333.00
332.00
333.00
335.00
333.00
334.00
337.00
337.00
339.00
339.00
336.00
338.00
339.00
336.00
340.00
337.00
337.00
340.00
341.00
339.00
339.00
339.00
337.00
341.00
340.00
339.00
340.00
340.00
338.00
342.00
340.00
341.00
343.00
340.00
342.00
344.00
342.00
342.00
344.00
341.00
341.00
342.00
340.00
341.00
341.00
338.00
341.00
341.00
340.00
341.00
342.00
340.00
343.00
343.00
341.00
342.00
342.00
341.00
343.00
341.00
341.00
342.00
341.00
341.00
344.00
343.00
343.00
345.00
343.00
344.00
345.00
341.00
341.00
342.00
341.00
343.00
344.00
342.00
343.00
345.00
342.00
344.00
343.00
340.00
345.00
343.00
343.00
345.00
345.00
343.00
347.00
345.00
346.00
348.00
346.00
345.00
347.00
346.00
346.00
349.00
346.00
346.00
347.00
346.00
345.00
346.00
345.00
347.00
347.00
345.00
348.00
348.00
347.00
350.00
349.00
349.00
348.00
347.00
346.00
349.00
350.00
346.00
350.00
348.00
347.00
350.00
349.00
347.00
349.00
348.00
348.00
350.00
348.00
348.00
349.00
349.00
351.00
352.00
350.00
351.00
352.00
351.00
353.00
353.00
350.00
352.00
351.00
349.00
352.00
354.00
352.00
356.00
355.00
352.00
355.00
352.00
350.00
351.00
349.00
348.00
351.00
353.00
353.00
356.00
357.00
358.00
363.00
364.00
371.00
376.00
379.00
385.00
390.00
390.00
392.00
389.00
385.00
386.00
385.00
386.00
390.00
392.00
393.00
398.00
397.00
393.00
390.00
388.00
382.00
378.00
373.00
370.00
368.00
361.00
359.00
358.00
356.00
354.00
355.00
350.00
349.00
349.00
347.00
347.00
348.00
346.00
348.00
349.00
346.00
347.00
348.00
347.00
348.00
347.00
346.00
350.00
348.00
348.00
350.00
347.00
340.00
337.00
331.00
330.00
335.00
338.00
345.00
359.00
374.00
392.00
417.00
449.00
496.00
554.00
615.00
674.00
711.00
711.00
690.00
648.00
602.00
556.00
508.00
460.00
423.00
386.00
357.00
338.00
325.00
320.00
321.00
326.00
331.00
342.00
346.00
349.00
353.00
353.00
352.00
355.00
352.00
351.00
351.00
348.00
347.00
347.00
346.00
347.00
348.00
344.00
345.00
345.00
344.00
346.00
345.00
345.00
348.00
349.00
348.00
350.00
350.00
348.00
352.00
351.00
348.00
351.00
350.00
349.00
351.00
352.00
352.00
356.00
354.00
355.00
356.00
355.00
356.00
359.00
358.00
359.00
360.00
357.00
359.00
362.00
362.00
364.00
365.00
363.00
365.00
367.00
366.00
367.00
367.00
365.00
370.00
371.00
371.00
373.00
375.00
373.00
376.00
374.00
374.00
376.00
375.00
376.00
378.00
378.00
381.00
384.00
383.00
384.00
386.00
386.00
389.00
392.00
392.00
394.00
396.00
396.00
398.00
400.00
400.00
404.00
404.00
405.00
407.00
408.00
409.00
411.00
411.00
411.00
414.00
411.00
411.00
414.00
412.00
411.00
413.00
410.00
409.00
409.00
404.00
402.00
401.00
397.00
394.00
393.00
387.00
384.00
381.00
376.00
371.00
366.00
361.00
361.00
356.00
352.00
351.00
348.00
343.00
343.00
340.00
338.00
338.00
335.00
332.00
334.00
333.00
330.00
332.00
328.00
326.00
328.00
327.00
327.00
327.00
327.00
328.00
327.00
325.00
326.00
327.00
327.00
328.00
328.00
325.00
327.00
328.00
327.00
331.00
332.00
330.00
335.00
334.00
332.00
334.00
333.00
330.00
333.00
333.00
334.00
335.00
335.00
336.00
338.00
337.00
338.00
340.00
337.00
337.00
338.00
336.00
337.00
339.00
338.00
341.00
341.00
339.00
341.00
342.00
339.00
343.00
343.00
341.00
345.00
345.00
344.00
345.00
345.00
343.00
346.00
344.00
342.00
344.00
344.00
344.00
345.00
341.00
342.00
344.00
340.00
341.00
343.00
342.00
344.00
346.00
344.00
347.00
347.00
345.00
345.00
344.00
341.00
342.00
343.00
344.00
343.00
344.00
341.00
341.00
341.00
340.00
344.00
342.00
342.00
344.00
343.00
343.00
345.00
341.00
340.00
341.00
340.00
341.00
343.00
342.00
342.00
342.00
338.00
338.00
341.00
342.00
344.00
345.00
344.00
347.00
345.00
344.00
345.00
345.00
342.00
346.00
344.00
343.00
345.00
345.00
344.00
347.00
346.00
346.00
350.00
346.00
346.00
348.00
347.00
347.00
349.00
346.00
347.00
348.00
348.00
349.00
351.00
350.00
352.00
351.00
349.00
350.00
351.00
349.00
350.00
350.00
347.00
351.00
350.00
348.00
350.00
350.00
348.00
353.00
351.00
351.00
353.00
353.00
354.00
356.00
357.00
360.00
364.00
366.00
370.00
376.00
380.00
384.00
384.00
382.00
384.00
382.00
381.00
384.00
386.00
386.00
393.00
394.00
392.00
392.00
389.00
387.00
385.00
380.00
375.00
373.00
367.00
361.00
359.00
357.00
355.00
356.00
354.00
353.00
354.00
349.00
350.00
350.00
347.00
348.00
349.00
345.00
347.00
349.00
347.00
349.00
349.00
346.00
349.00
349.00
348.00
349.00
351.00
347.00
346.00
340.00
333.00
335.00
335.00
341.00
351.00
361.00
375.00
393.00
410.00
440.00
476.00
522.00
578.00
632.00
673.00
691.00
681.00
648.00
608.00
566.00
524.00
485.00
448.00
414.00
387.00
363.00
343.00
332.00
325.00
323.00
332.00
335.00
338.00
345.00
348.00
349.00
354.00
352.00
351.00
352.00
347.00
345.00
346.00
345.00
345.00
348.00
346.00
346.00
349.00
349.00
348.00
348.00
347.00
349.00
349.00
349.00
350.00
350.00
349.00
352.00
351.00
351.00
353.00
351.00
350.00
353.00
354.00
354.00
360.00
360.00
360.00
363.00
362.00
361.00
361.00
359.00
358.00
359.00
358.00
359.00
362.00
362.00
363.00
363.00
361.00
360.00
361.00
361.00
365.00
367.00
367.00
372.00
371.00
368.00
370.00
371.00
369.00
373.00
372.00
371.00
374.00
374.00
377.00
379.00
379.00
379.00
380.00
379.00
380.00
382.00
384.00
386.00
389.00
389.00
391.00
392.00
390.00
393.00
394.00
392.00
394.00
394.00
393.00
397.00
400.00
400.00
403.00
404.00
402.00
404.00
403.00
400.00
400.00
401.00
401.00
401.00
400.00
401.00
403.00
399.00
399.00
399.00
396.00
395.00
393.00
386.00
382.00
378.00
373.00
369.00
368.00
364.00
363.00
362.00
358.00
356.00
356.00
352.00
350.00
347.00
343.00
345.00
340.00
338.00
337.00
335.00
333.00
335.00
332.00
331.00
333.00
331.00
331.00
332.00
330.00
330.00
333.00
331.00
334.00
334.00
332.00
334.00
336.00
333.00
334.00
333.00
330.00
331.00
331.00
330.00
335.00
334.00
334.00
337.00
337.00
337.00
338.00
336.00
336.00
339.00
337.00
337.00
340.00
340.00
339.00
343.00
340.00
340.00
342.00
340.00
339.00
339.00
339.00
340.00
341.00
340.00
342.00
344.00
345.00
345.00
346.00
343.00
347.00
345.00
344.00
346.00
346.00
342.00
346.00
344.00
342.00
343.00
343.00
343.00
345.00
345.00
345.00
348.00
344.00
343.00
344.00
343.00
343.00
343.00
342.00
343.00
345.00
343.00
345.00
346.00
344.00
346.00
346.00
344.00
346.00
344.00
343.00
343.00
343.00
342.00
345.00
344.00
344.00
346.00
348.00
348.00
352.00
351.00
351.00
350.00
348.00
346.00
346.00
344.00
345.00
347.00
344.00
346.00
348.00
347.00
349.00
350.00
348.00
349.00
349.00
347.00
348.00
350.00
348.00
350.00
349.00
346.00
348.00
348.00
349.00
351.00
350.00
349.00
353.00
349.00
348.00
350.00
348.00
350.00
351.00
351.00
351.00
352.00
350.00
350.00
352.00
350.00
351.00
353.00
350.00
351.00
352.00
351.00
354.00
355.00
355.00
362.00
364.00
366.00
371.00
375.00
378.00
384.00
383.00
382.00
383.00
380.00
380.00
383.00
384.00
387.00
393.00
394.00
394.00
394.00
390.00
387.00
385.00
383.00
381.00
376.00
369.00
365.00
361.00
359.00
361.00
359.00
356.00
356.00
351.00
348.00
349.00
348.00
344.00
348.00
345.00
343.00
347.00
347.00
346.00
348.00
347.00
347.00
349.00
348.00
350.00
349.00
348.00
347.00
346.00
339.00
335.00
334.00
336.00
342.00
348.00
355.00
371.00
384.00
402.00
429.00
463.00
506.00
564.00
618.00
663.00
691.00
686.00
660.00
623.00
580.00
538.00
499.00
458.00
422.00
392.00
366.00
345.00
332.00
322.00
321.00
324.00
324.00
331.00
338.00
341.00
346.00
348.00
347.00
349.00
348.00
347.00
347.00
347.00
344.00
347.00
346.00
344.00
346.00
348.00
347.00
348.00
347.00
347.00
349.00
346.00
347.00
348.00
347.00
348.00
352.00
350.00
351.00
352.00
351.00
352.00
354.00
352.00
352.00
353.00
352.00
353.00
354.00
353.00
356.00
357.00
357.00
362.00
361.00
361.00
364.00
363.00
361.00
365.00
363.00
363.00
366.00
367.00
366.00
367.00
366.00
365.00
368.00
365.00
365.00
367.00
367.00
369.00
373.00
373.00
376.00
376.00
376.00
378.00
379.00
378.00
382.00
381.00
382.00
385.00
386.00
387.00
388.00
388.00
387.00
392.00
391.00
390.00
394.00
394.00
394.00
400.00
399.00
400.00
402.00
401.00
402.00
402.00
401.00
403.00
403.00
402.00
404.00
405.00
406.00
406.00
407.00
404.00
406.00
403.00
400.00
402.00
399.00
394.00
395.00
392.00
387.00
386.00
383.00
380.00
378.00
373.00
368.00
366.00
361.00
356.00
355.00
352.00
350.00
350.00
347.00
344.00
343.00
338.00
337.00
338.00
335.00
337.00
336.00
332.00
333.00
332.00
330.00
329.00
329.00
327.00
330.00
329.00
328.00
330.00
330.00
328.00
331.00
329.00
329.00
332.00
329.00
330.00
333.00
331.00
333.00
336.00
333.00
334.00
335.00
335.00
334.00
335.00
334.00
336.00
337.00
335.00
336.00
336.00
335.00
337.00
337.00
334.00
335.00
335.00
335.00
338.00
337.00
337.00
343.00
341.00
342.00
344.00
343.00
342.00
344.00
341.00
340.00
342.00
340.00
342.00
344.00
343.00
343.00
344.00
341.00
341.00
343.00
341.00
343.00
342.00
341.00
343.00
341.00
340.00
341.00
341.00
340.00
345.00
342.00
342.00
345.00
343.00
341.00
344.00
343.00
342.00
345.00
343.00
342.00
344.00
343.00
343.00
345.00
345.00
347.00
347.00
345.00
346.00
347.00
346.00
347.00
346.00
344.00
345.00
345.00
343.00
345.00
345.00
342.00
346.00
344.00
343.00
346.00
346.00
343.00
345.00
346.00
345.00
347.00
346.00
346.00
347.00
346.00
347.00
350.00
348.00
347.00
347.00
346.00
347.00
347.00
344.00
347.00
347.00
345.00
347.00
348.00
345.00
349.00
348.00
346.00
350.00
350.00
349.00
349.00
352.00
351.00
353.00
351.00
349.00
351.00
352.00
352.00
352.00
351.00
352.00
353.00
349.00
350.00
352.00
350.00
352.00
354.00
351.00
355.00
356.00
354.00
356.00
359.00
360.00
367.00
371.00
376.00
381.00
386.00
388.00
388.00
387.00
386.00
389.00
387.00
389.00
392.00
394.00
397.00
402.00
400.00
399.00
394.00
389.00
386.00
382.00
376.00
372.00
368.00
362.00
360.00
360.00
357.00
356.00
354.00
351.00
353.00
350.00
349.00
350.00
348.00
345.00
348.00
345.00
345.00
347.00
347.00
347.00
349.00
347.00
346.00
349.00
345.00
345.00
348.00
345.00
343.00
341.00
334.00
335.00
337.00
340.00
347.00
359.00
372.00
392.00
413.00
443.00
487.00
542.00
604.00
667.00
710.00
713.00
711.00
676.00
628.00
580.00
527.00
475.00
434.00
393.00
360.00
339.00
322.00
314.00
315.00
319.00
328.00
337.00
341.00
347.00
350.00
351.00
352.00
350.00
348.00
351.00
349.00
346.00
347.00
348.00
346.00
351.00
349.00
346.00
347.00
346.00
345.00
348.00
348.00
347.00
352.00
350.00
350.00
352.00
350.00
349.00
352.00
352.00
353.00
356.00
354.00
356.00
357.00
356.00
358.00
358.00
356.00
358.00
360.00
359.00
360.00
361.00
359.00
363.00
361.00
359.00
361.00
362.00
362.00
366.00
367.00
367.00
368.00
365.00
366.00
369.00
368.00
370.00
374.00
372.00
373.00
376.00
375.00
377.00
379.00
378.00
380.00
381.00
381.00
382.00
385.00
384.00
386.00
387.00
387.00
390.00
392.00
393.00
395.00
395.00
395.00
400.00
399.00
401.00
404.00
404.00
408.00
411.00
410.00
411.00
413.00
410.00
411.00
413.00
412.00
414.00
417.00
416.00
418.00
420.00
418.00
417.00
415.00
411.00
412.00
408.00
405.00
405.00
402.00
398.00
399.00
393.00
388.00
385.00
379.00
374.00
373.00
369.00
363.00
362.00
356.00
351.00
351.00
347.00
344.00
344.00
341.00
339.00
338.00
335.00
335.00
334.00
333.00
331.00
330.00
327.00
327.00
327.00
325.00
328.00
328.00
324.00
329.00
327.00
325.00
328.00
329.00
326.00
329.00
327.00
326.00
327.00
325.00
325.00
329.00
329.00
330.00
332.00
330.00
329.00
330.00
329.00
330.00
331.00
329.00
332.00
333.00
331.00
333.00
333.00
331.00
334.00
335.00
334.00
337.00
337.00
336.00
338.00
339.00
337.00
340.00
339.00
338.00
339.00
339.00
340.00
341.00
340.00
340.00
341.00
338.00
338.00
339.00
339.00
341.00
344.00
341.00
344.00
345.00
342.00
342.00
344.00
341.00
343.00
342.00
340.00
341.00
342.00
341.00
342.00
343.00
341.00
344.00
341.00
340.00
343.00
341.00
342.00
346.00
342.00
343.00
344.00
343.00
343.00
345.00
343.00
344.00
345.00
343.00
343.00
345.00
343.00
343.00
343.00
341.00
344.00
343.00
341.00
343.00
342.00
341.00
345.00
344.00
343.00
344.00
343.00
342.00
342.00
340.00
339.00
344.00
343.00
343.00
347.00
346.00
346.00
349.00
347.00
347.00
347.00
343.00
343.00
343.00
343.00
346.00
346.00
344.00
345.00
346.00
346.00
347.00
347.00
343.00
348.00
346.00
344.00
347.00
348.00
347.00
350.00
347.00
345.00
347.00
346.00
346.00
348.00
348.00
350.00
351.00
350.00
351.00
352.00
350.00
351.00
351.00
350.00
353.00
352.00
349.00
350.00
350.00
347.00
350.00
349.00
346.00
349.00
350.00
350.00
352.00
352.00
350.00
353.00
351.00
351.00
354.00
354.00
354.00
356.00
354.00
353.00
354.00
351.00
353.00
354.00
353.00
355.00
357.00
354.00
355.00
357.00
356.00
358.00
360.00
359.00
363.00
365.00
367.00
373.00
379.00
382.00
390.00
392.00
393.00
394.00
390.00
389.00
390.00
389.00
391.00
396.00
396.00
399.00
400.00
397.00
395.00
392.00
388.00
385.00
380.00
373.00
369.00
366.00
362.00
361.00
360.00
357.00
358.00
358.00
357.00
357.00
355.00
352.00
353.00
349.00
347.00
349.00
349.00
348.00
350.00
349.00
348.00
352.00
351.00
350.00
351.00
348.00
348.00
350.00
346.00
342.00
340.00
337.00
338.00
342.00
345.00
355.00
365.00
378.00
397.00
424.00
460.00
516.00
573.00
639.00
701.00
718.00
716.00
707.00
668.00
618.00
568.00
511.00
460.00
418.00
381.00
353.00
335.00
323.00
321.00
325.00
329.00
338.00
347.00
351.00
356.00
356.00
354.00
353.00
352.00
349.00
351.00
350.00
347.00
350.00
349.00
347.00
349.00
349.00
346.00
349.00
347.00
346.00
351.00
349.00
350.00
351.00
351.00
353.00
355.00
353.00
352.00
352.00
352.00
352.00
354.00
353.00
356.00
357.00
354.00
357.00
358.00
356.00
359.00
360.00
360.00
363.00
363.00
361.00
364.00
364.00
363.00
366.00
365.00
365.00
367.00
366.00
366.00
367.00
367.00
368.00
372.00
370.00
372.00
373.00
371.00
372.00
375.00
373.00
376.00
378.00
377.00
378.00
380.00
381.00
384.00
385.00
385.00
387.00
390.00
389.00
392.00
394.00
396.00
399.00
399.00
400.00
404.00
404.00
405.00
410.00
409.00
410.00
413.00
412.00
414.00
417.00
417.00
420.00
422.00
421.00
422.00
423.00
422.00
424.00
422.00
421.00
423.00
420.00
418.00
418.00
415.00
410.00
409.00
403.00
399.00
396.00
392.00
389.00
386.00
383.00
376.00
375.00
369.00
364.00
361.00
356.00
351.00
351.00
345.00
342.00
342.00
337.00
336.00
335.00
334.00
334.00
334.00
331.00
331.00
329.00
325.00
324.00
324.00
319.00
324.00
323.00
321.00
325.00
325.00
322.00
326.00
324.00
322.00
324.00
324.00
324.00
324.00
324.00
324.00
326.00
324.00
325.00
327.00
326.00
326.00
327.00
327.00
331.00
332.00
329.00
331.00
332.00
331.00
334.00
335.00
333.00
335.00
335.00
334.00
335.00
335.00
333.00
337.00
335.00
335.00
336.00
336.00
336.00
340.00
339.00
339.00
341.00
338.00
340.00
342.00
340.00
341.00
343.00
339.00
340.00
341.00
339.00
340.00
340.00
340.00
343.00
342.00
340.00
342.00
341.00
337.00
339.00
338.00
338.00
341.00
342.00
343.00
343.00
341.00
340.00
343.00
339.00
339.00
341.00
340.00
341.00
342.00
341.00
342.00
343.00
341.00
341.00
342.00
340.00
341.00
341.00
340.00
341.00
343.00
341.00
343.00
342.00
340.00
343.00
341.00
340.00
342.00
341.00
340.00
345.00
342.00
340.00
344.00
341.00
340.00
342.00
342.00
341.00
344.00
341.00
341.00
343.00
342.00
343.00
343.00
344.00
345.00
345.00
343.00
345.00
345.00
343.00
346.00
346.00
345.00
348.00
346.00
343.00
346.00
346.00
344.00
348.00
346.00
345.00
348.00
348.00
346.00
348.00
347.00
348.00
349.00
347.00
347.00
349.00
349.00
350.00
350.00
347.00
346.00
345.00
344.00
345.00
346.00
344.00
348.00
347.00
345.00
348.00
349.00
348.00
354.00
352.00
351.00
353.00
352.00
350.00
352.00
351.00
351.00
350.00
350.00
350.00
351.00
352.00
351.00
352.00
351.00
354.00
355.00
352.00
354.00
354.00
352.00
356.00
355.00
353.00
354.00
353.00
352.00
353.00
354.00
352.00
355.00
354.00
352.00
353.00
353.00
352.00
353.00
351.00
352.00
355.00
353.00
354.00
356.00
354.00
355.00
357.00
354.00
355.00
357.00
355.00
357.00
359.00
358.00
360.00
361.00
361.00
364.00
368.00
372.00
379.00
384.00
387.00
392.00
390.00
388.00
387.00
384.00
383.00
387.00
386.00
389.00
394.00
394.00
394.00
394.00
389.00
388.00
383.00
376.00
372.00
371.00
366.00
364.00
364.00
362.00
363.00
361.00
358.00
358.00
356.00
352.00
354.00
352.00
349.00
350.00
350.00
351.00
351.00
349.00
348.00
352.00
350.00
349.00
352.00
351.00
350.00
353.00
349.00
347.00
346.00
339.00
337.00
339.00
341.00
347.00
355.00
363.00
379.00
397.00
419.00
452.00
494.00
544.00
610.00
664.00
700.00
711.00
690.00
647.00
605.00
556.00
508.00
468.00
428.00
394.00
366.00
343.00
327.00
322.00
320.00
326.00
334.00
341.00
347.00
352.00
352.00
353.00
352.00
349.00
351.00
351.00
349.00
352.00
353.00
348.00
350.00
350.00
348.00
349.00
350.00
348.00
352.00
351.00
349.00
350.00
349.00
347.00
351.00
351.00
353.00
355.00
352.00
353.00
354.00
352.00
354.00
356.00
353.00
355.00
356.00
354.00
357.00
358.00
356.00
359.00
359.00
357.00
359.00
362.00
361.00
365.00
364.00
362.00
361.00
359.00
358.00
359.00
359.00
360.00
364.00
365.00
368.00
371.00
370.00
370.00
372.00
371.00
373.00
375.00
374.00
375.00
377.00
376.00
378.00
380.00
381.00
383.00
385.00
384.00
386.00
387.00
388.00
391.00
393.00
394.00
397.00
396.00
396.00
401.00
400.00
402.00
404.00
403.00
404.00
408.00
408.00
410.00
413.00
411.00
411.00
413.00
412.00
412.00
413.00
413.00
416.00
415.00
414.00
415.00
414.00
411.00
412.00
409.00
408.00
405.00
402.00
397.00
395.00
391.00
384.00
384.00
378.00
372.00
368.00
363.00
358.00
357.00
352.00
351.00
350.00
346.00
345.00
343.00
340.00
339.00
338.00
334.00
333.00
331.00
329.00
330.00
330.00
328.00
332.00
331.00
328.00
329.00
329.00
326.00
330.00
327.00
326.00
328.00
326.00
324.00
325.00
325.00
325.00
329.00
327.00
327.00
328.00
328.00
330.00
330.00
329.00
330.00
333.00
330.00
331.00
331.00
328.00
331.00
332.00
330.00
335.00
334.00
333.00
334.00
335.00
333.00
338.00
336.00
337.00
340.00
341.00
340.00
341.00
340.00
340.00
343.00
340.00
341.00
344.00
342.00
344.00
346.00
342.00
342.00
343.00
341.00
342.00
343.00
342.00
343.00
343.00
340.00
341.00
343.00
342.00
345.00
345.00
341.00
345.00
343.00
343.00
344.00
342.00
342.00
345.00
343.00
343.00
344.00
342.00
341.00
343.00
341.00
341.00
342.00
342.00
343.00
345.00
344.00
344.00
346.00
344.00
344.00
343.00
342.00
343.00
344.00
342.00
345.00
343.00
342.00
343.00
342.00
343.00
344.00
343.00
343.00
347.00
345.00
344.00
346.00
345.00
343.00
347.00
345.00
344.00
346.00
345.00
345.00
346.00
345.00
347.00
348.00
346.00
348.00
348.00
346.00
348.00
345.00
344.00
348.00
349.00
348.00
351.00
352.00
349.00
353.00
350.00
347.00
349.00
348.00
348.00
349.00
347.00
346.00
349.00
349.00
350.00
350.00
348.00
349.00
350.00
350.00
352.00
352.00
349.00
350.00
350.00
347.00
351.00
351.00
352.00
351.00
352.00
351.00
352.00
352.00
351.00
354.00
352.00
351.00
353.00
353.00
352.00
355.00
353.00
353.00
354.00
351.00
352.00
354.00
354.00
357.00
362.00
364.00
369.00
375.00
377.00
381.00
384.00
384.00
385.00
384.00
381.00
381.00
382.00
382.00
388.00
390.00
392.00
393.00
391.00
389.00
388.00
383.00
380.00
378.00
370.00
367.00
365.00
360.00
359.00
362.00
360.00
359.00
358.00
353.00
351.00
352.00
349.00
351.00
353.00
351.00
351.00
352.00
351.00
352.00
351.00
348.00
352.00
350.00
350.00
352.00
352.00
350.00
353.00
349.00
347.00
344.00
338.00
338.00
343.00
347.00
354.00
367.00
380.00
398.00
425.00
457.00
502.00
556.00
614.00
668.00
698.00
699.00
678.00
639.00
595.00
554.00
509.00
468.00
432.00
399.00
371.00
350.00
334.00
325.00
327.00
328.00
333.00
343.00
347.00
350.00
354.00
354.00
355.00
356.00
353.00
353.00
353.00
351.00
352.00
351.00
348.00
350.00
350.00
349.00
351.00
353.00
351.00
356.00
355.00
353.00
354.00
354.00
350.00
354.00
354.00
353.00
356.00
355.00
355.00
356.00
357.00
357.00
360.00
359.00
359.00
361.00
361.00
362.00
363.00
362.00
364.00
365.00
363.00
366.00
367.00
365.00
368.00
368.00
366.00
369.00
369.00
367.00
369.00
369.00
368.00
371.00
371.00
374.00
374.00
375.00
374.00
375.00
375.00
376.00
379.00
378.00
381.00
384.00
384.00
386.00
388.00
387.00
389.00
391.00
390.00
391.00
393.00
391.00
395.00
396.00
397.00
399.00
401.00
401.00
406.00
406.00
406.00
410.00
408.00
409.00
411.00
410.00
411.00
414.00
412.00
413.00
416.00
415.00
416.00
418.00
418.00
418.00
419.00
415.00
412.00
411.00
408.00
406.00
404.00
399.00
396.00
392.00
386.00
383.00
379.00
375.00
376.00
372.00
369.00
368.00
365.00
360.00
357.00
353.00
348.00
348.00
343.00
341.00
342.00
339.00
337.00
340.00
337.00
335.00
336.00
334.00
334.00
334.00
332.00
333.00
332.00
329.00
330.00
331.00
330.00
332.00
331.00
329.00
334.00
332.00
330.00
332.00
333.00
330.00
336.00
335.00
334.00
334.00
335.00
334.00
336.00
335.00
335.00
337.00
335.00
335.00
336.00
336.00
337.00
339.00
338.00
338.00
338.00
335.00
338.00
340.00
338.00
343.00
343.00
341.00
343.00
344.00
342.00
343.00
342.00
340.00
344.00
343.00
342.00
344.00
344.00
342.00
345.00
343.00
341.00
342.00
341.00
342.00
344.00
342.00
344.00
346.00
342.00
341.00
343.00
341.00
343.00
341.00
340.00
343.00
343.00
342.00
344.00
344.00
343.00
346.00
345.00
342.00
343.00
343.00
340.00
341.00
341.00
341.00
345.00
343.00
345.00
347.00
345.00
345.00
347.00
345.00
346.00
348.00
346.00
347.00
348.00
345.00
345.00
345.00
343.00
345.00
347.00
347.00
347.00
346.00
344.00
348.00
346.00
345.00
346.00
345.00
344.00
348.00
345.00
347.00
349.00
346.00
346.00
347.00
346.00
346.00
348.00
346.00
346.00
349.00
348.00
348.00
350.00
348.00
350.00
350.00
351.00
349.00
350.00
348.00
352.00
351.00
350.00
350.00
348.00
347.00
350.00
350.00
349.00
353.00
350.00
350.00
352.00
351.00
349.00
353.00
350.00
350.00
351.00
350.00
351.00
352.00
351.00
353.00
355.00
353.00
354.00
353.00
356.00
355.00
355.00
352.00
356.00
354.00
352.00
354.00
354.00
352.00
356.00
355.00
355.00
357.00
356.00
354.00
355.00
355.00
355.00
356.00
354.00
354.00
355.00
355.00
355.00
356.00
355.00
356.00
356.00
353.00
355.00
355.00
353.00
356.00
356.00
355.00
359.00
362.00
363.00
368.00
372.00
375.00
382.00
384.00
388.00
391.00
394.00
393.00
392.00
390.00
390.00
392.00
391.00
394.00
397.00
396.00
399.00
398.00
392.00
390.00
388.00
381.00
377.00
374.00
368.00
367.00
364.00
361.00
361.00
359.00
355.00
356.00
354.00
351.00
354.00
351.00
352.00
353.00
352.00
350.00
353.00
349.00
349.00
351.00
350.00
351.00
352.00
351.00
351.00
352.00
350.00
349.00
349.00
343.00
340.00
341.00
339.00
343.00
348.00
355.00
368.00
383.00
402.00
434.00
470.00
522.00
583.00
645.00
697.00
717.00
712.00
688.00
649.00
598.00
551.00
501.00
453.00
410.00
377.00
348.00
330.00
323.00
319.00
324.00
332.00
339.00
348.00
352.00
352.00
354.00
354.00
352.00
354.00
351.00
349.00
353.00
351.00
349.00
351.00
351.00
348.00
351.00
348.00
346.00
348.00
346.00
347.00
349.00
349.00
351.00
353.00
352.00
353.00
354.00
353.00
353.00
356.00
353.00
356.00
355.00
355.00
356.00
358.00
356.00
360.00
359.00
356.00
358.00
359.00
358.00
360.00
361.00
361.00
365.00
364.00
363.00
364.00
364.00
363.00
367.00
366.00
366.00
367.00
366.00
369.00
370.00
369.00
372.00
373.00
371.00
373.00
374.00
374.00
378.00
378.00
377.00
381.00
382.00
381.00
383.00
385.00
385.00
389.00
390.00
390.00
392.00
394.00
396.00
399.00
398.00
401.00
405.00
405.00
407.00
409.00
409.00
411.00
413.00
411.00
414.00
415.00
415.00
417.00
419.00
418.00
421.00
421.00
421.00
421.00
422.00
420.00
420.00
418.00
415.00
417.00
411.00
408.00
407.00
401.00
397.00
395.00
387.00
384.00
382.00
377.00
373.00
371.00
365.00
361.00
359.00
354.00
351.00
350.00
345.00
343.00
341.00
339.00
340.00
338.00
334.00
332.00
331.00
328.00
330.00
328.00
326.00
327.00
327.00
326.00
328.00
326.00
324.00
328.00
325.00
323.00
325.00
325.00
325.00
329.00
327.00
328.00
329.00
327.00
327.00
328.00
327.00
328.00
328.00
327.00
329.00
330.00
331.00
331.00
331.00
328.00
333.00
333.00
332.00
335.00
335.00
333.00
337.00
334.00
332.00
334.00
332.00
333.00
336.00
337.00
338.00
341.00
339.00
340.00
341.00
341.00
340.00
341.00
339.00
341.00
342.00
340.00
342.00
343.00
340.00
342.00
341.00
339.00
341.00
340.00
339.00
341.00
342.00
340.00
344.00
342.00
340.00
340.00
340.00
339.00
341.00
340.00
340.00
343.00
342.00
344.00
347.00
344.00
344.00
344.00
339.00
340.00
341.00
341.00
343.00
344.00
342.00
344.00
343.00
341.00
342.00
342.00
341.00
344.00
343.00
342.00
344.00
341.00
342.00
344.00
342.00
341.00
345.00
341.00
342.00
344.00
342.00
343.00
344.00
342.00
342.00
343.00
340.00
342.00
345.00
345.00
346.00
347.00
344.00
344.00
345.00
344.00
345.00
344.00
342.00
345.00
342.00
343.00
345.00
345.00
344.00
347.00
346.00
346.00
349.00
347.00
348.00
348.00
349.00
348.00
351.00
346.00
345.00
347.00
346.00
348.00
350.00
349.00
352.00
351.00
349.00
350.00
350.00
348.00
352.00
350.00
350.00
352.00
350.00
349.00
349.00
350.00
348.00
353.00
351.00
350.00
352.00
352.00
352.00
353.00
352.00
352.00
354.00
352.00
351.00
351.00
351.00
353.00
355.00
353.00
354.00
355.00
352.00
354.00
354.00
351.00
354.00
354.00
353.00
355.00
355.00
354.00
354.00
354.00
355.00
358.00
357.00
356.00
357.00
357.00
356.00
359.00
357.00
356.00
356.00
355.00
356.00
358.00
358.00
360.00
362.00
359.00
362.00
365.00
366.00
373.00
377.00
382.00
390.00
394.00
395.00
397.00
395.00
391.00
390.00
387.00
386.00
389.00
392.00
396.00
399.00
397.00
395.00
393.00
389.00
387.00
384.00
378.00
375.00
372.00
366.00
367.00
365.00
362.00
361.00
361.00
358.00
358.00
358.00
355.00
354.00
355.00
352.00
352.00
352.00
351.00
354.00
352.00
352.00
353.00
350.00
350.00
354.00
351.00
351.00
351.00
348.00
345.00
343.00
340.00
341.00
345.00
346.00
354.00
367.00
381.00
400.00
423.00
455.00
506.00
559.00
623.00
684.00
715.00
713.00
704.00
663.00
617.00
570.00
519.00
471.00
429.00
391.00
362.00
345.00
330.00
323.00
325.00
328.00
334.00
346.00
351.00
356.00
358.00
356.00
357.00
357.00
355.00
356.00
354.00
352.00
352.00
353.00
352.00
353.00
352.00
350.00
354.00
352.00
351.00
353.00
353.00
351.00
356.00
354.00
353.00
356.00
354.00
354.00
355.00
354.00
354.00
356.00
355.00
356.00
358.00
358.00
358.00
359.00
358.00
362.00
362.00
361.00
364.00
364.00
361.00
364.00
363.00
361.00
364.00
365.00
365.00
368.00
367.00
367.00
369.00
368.00
367.00
369.00
370.00
371.00
375.00
375.00
376.00
378.00
375.00
377.00
379.00
377.00
380.00
381.00
380.00
383.00
385.00
386.00
388.00
390.00
388.00
392.00
393.00
393.00
396.00
399.00
400.00
401.00
402.00
403.00
406.00
405.00
407.00
410.00
411.00
412.00
415.00
414.00
416.00
419.00
418.00
420.00
422.00
420.00
421.00
422.00
420.00
421.00
421.00
419.00
419.00
417.00
414.00
411.00
408.00
405.00
402.00
398.00
393.00
393.00
385.00
382.00
379.00
374.00
369.00
368.00
362.00
358.00
357.00
350.00
347.00
346.00
342.00
340.00
339.00
334.00
332.00
332.00
330.00
330.00
330.00
328.00
330.00
328.00
324.00
325.00
323.00
322.00
326.00
324.00
324.00
327.00
325.00
324.00
327.00
325.00
323.00
326.00
324.00
323.00
325.00
324.00
324.00
326.00
327.00
329.00
330.00
329.00
329.00
331.00
329.00
331.00
332.00
331.00
332.00
332.00
330.00
333.00
332.00
329.00
333.00
331.00
330.00
333.00
335.00
333.00
336.00
337.00
338.00
341.00
338.00
338.00
339.00
338.00
338.00
340.00
337.00
338.00
341.00
339.00
341.00
341.00
338.00
340.00
339.00
336.00
338.00
340.00
338.00
340.00
341.00
339.00
341.00
339.00
338.00
340.00
341.00
339.00
343.00
340.00
339.00
340.00
339.00
338.00
340.00
339.00
340.00
341.00
337.00
338.00
339.00
337.00
338.00
339.00
336.00
340.00
342.00
340.00
341.00
341.00
340.00
342.00
341.00
339.00
340.00
341.00
339.00
340.00
340.00
339.00
342.00
339.00
339.00
341.00
339.00
340.00
342.00
340.00
341.00
342.00
340.00
341.00
343.00
342.00
342.00
343.00
340.00
341.00
341.00
340.00
342.00
341.00
340.00
344.00
343.00
342.00
345.00
345.00
344.00
347.00
345.00
344.00
346.00
345.00
345.00
346.00
346.00
345.00
348.00
346.00
345.00
347.00
345.00
343.00
346.00
344.00
346.00
346.00
344.00
346.00
346.00
347.00
349.00
348.00
347.00
350.00
351.00
349.00
350.00
349.00
346.00
350.00
348.00
347.00
349.00
349.00
347.00
352.00
349.00
348.00
350.00
349.00
350.00
352.00
353.00
353.00
354.00
353.00
353.00
353.00
352.00
352.00
352.00
351.00
354.00
353.00
351.00
354.00
355.00
352.00
356.00
356.00
355.00
357.00
357.00
357.00
360.00
363.00
367.00
373.00
377.00
381.00
384.00
385.00
386.00
385.00
383.00
383.00
384.00
384.00
389.00
392.00
393.00
395.00
394.00
388.00
388.00
386.00
381.00
377.00
372.00
367.00
367.00
363.00
360.00
360.00
359.00
355.00
357.00
354.00
352.00
353.00
350.00
349.00
349.00
347.00
347.00
350.00
347.00
349.00
351.00
349.00
351.00
351.00
350.00
352.00
352.00
349.00
348.00
347.00
341.00
336.00
338.00
339.00
344.00
352.00
361.00
377.00
393.00
414.00
446.00
482.00
531.00
589.00
642.00
686.00
704.00
688.00
656.00
616.00
570.00
529.00
487.00
447.00
413.00
385.00
357.00
340.00
330.00
325.00
326.00
330.00
335.00
345.00
349.00
352.00
355.00
355.00
353.00
356.00
352.00
350.00
350.00
346.00
345.00
348.00
347.00
347.00
350.00
348.00
348.00
351.00
350.00
350.00
352.00
352.00
354.00
354.00
353.00
354.00
355.00
354.00
357.00
356.00
355.00
357.00
356.00
356.00
359.00
357.00
356.00
359.00
357.00
355.00
358.00
357.00
356.00
361.00
360.00
360.00
363.00
362.00
363.00
364.00
364.00
365.00
366.00
365.00
365.00
366.00
367.00
367.00
369.00
367.00
372.00
372.00
371.00
373.00
374.00
373.00
377.00
377.00
375.00
377.00
378.00
380.00
383.00
385.00
386.00
388.00
386.00
386.00
387.00
389.00
391.00
393.00
394.00
397.00
400.00
398.00
401.00
402.00
400.00
404.00
405.00
404.00
407.00
410.00
410.00
412.00
413.00
412.00
417.00
416.00
414.00
414.00
414.00
412.00
413.00
411.00
411.00
411.00
406.00
405.00
404.00
399.00
398.00
395.00
390.00
387.00
384.00
377.00
374.00
372.00
367.00
366.00
362.00
356.00
353.00
351.00
348.00
348.00
346.00
343.00
344.00
339.00
337.00
337.00
334.00
331.00
334.00
332.00
331.00
333.00
332.00
332.00
333.00
331.00
332.00
335.00
332.00
331.00
332.00
330.00
331.00
333.00
331.00
333.00
334.00
333.00
335.00
335.00
332.00
336.00
334.00
333.00
334.00
333.00
332.00
335.00
336.00
334.00
339.00
337.00
335.00
337.00
336.00
335.00
339.00
338.00
339.00
341.00
339.00
340.00
340.00
339.00
339.00
339.00
337.00
339.00
340.00
340.00
343.00
341.00
339.00
342.00
341.00
340.00
343.00
343.00
341.00
345.00
343.00
341.00
343.00
342.00
340.00
342.00
341.00
341.00
344.00
341.00
342.00
343.00
343.00
344.00
346.00
345.00
347.00
346.00
342.00
344.00
344.00
341.00
343.00
342.00
339.00
342.00
343.00
340.00
343.00
343.00
342.00
344.00
342.00
340.00
340.00
340.00
339.00
344.00
343.00
342.00
342.00
342.00
343.00
345.00
342.00
345.00
347.00
344.00
346.00
347.00
345.00
346.00
344.00
343.00
348.00
347.00
347.00
348.00
348.00
345.00
348.00
346.00
344.00
345.00
345.00
346.00
349.00
349.00
350.00
352.00
348.00
348.00
350.00
348.00
349.00
352.00
351.00
353.00
354.00
351.00
352.00
353.00
351.00
352.00
350.00
348.00
348.00
349.00
348.00
349.00
349.00
350.00
354.00
353.00
352.00
354.00
353.00
353.00
357.00
356.00
357.00
360.00
359.00
362.00
368.00
372.00
378.00
384.00
386.00
387.00
388.00
385.00
384.00
384.00
384.00
389.00
390.00
394.00
397.00
396.00
392.00
391.00
386.00
383.00
382.00
377.00
372.00
370.00
364.00
359.00
358.00
356.00
353.00
354.00
352.00
349.00
352.00
351.00
352.00
352.00
350.00
349.00
349.00
348.00
349.00
350.00
348.00
350.00
351.00
352.00
352.00
352.00
348.00
351.00
347.00
342.00
340.00
338.00
335.00
343.00
346.00
352.00
365.00
375.00
390.00
411.00
437.00
476.00
525.00
579.00
634.00
674.00
690.00
680.00
649.00
610.00
572.00
531.00
487.00
451.00
417.00
385.00
364.00
345.00
333.00
325.00
324.00
326.00
333.00
340.00
342.00
349.00
349.00
349.00
350.00
349.00
347.00
350.00
348.00
347.00
348.00
345.00
346.00
347.00
345.00
346.00
348.00
345.00
347.00
348.00
347.00
348.00
349.00
348.00
352.00
352.00
352.00
353.00
354.00
353.00
356.00
355.00
354.00
357.00
354.00
356.00
358.00
357.00
358.00
362.00
362.00
359.00
360.00
358.00
359.00
359.00
358.00
360.00
362.00
361.00
362.00
364.00
362.00
363.00
363.00
362.00
364.00
366.00
366.00
368.00
367.00
366.00
370.00
369.00
370.00
374.00
375.00
376.00
378.00
376.00
376.00
378.00
375.00
375.00
378.00
379.00
380.00
384.00
384.00
387.00
390.00
391.00
392.00
392.00
391.00
394.00
394.00
395.00
398.00
398.00
397.00
401.00
399.00
401.00
404.00
402.00
403.00
405.00
406.00
406.00
410.00
408.00
407.00
409.00
408.00
406.00
406.00
404.00
401.00
397.00
392.00
390.00
387.00
385.00
384.00
382.00
377.00
374.00
371.00
365.00
362.00
359.00
355.00
357.00
353.00
349.00
350.00
348.00
343.00
344.00
341.00
338.00
339.00
336.00
336.00
337.00
336.00
335.00
336.00
333.00
336.00
332.00
330.00
332.00
332.00
330.00
333.00
333.00
330.00
332.00
334.00
332.00
335.00
335.00
332.00
336.00
336.00
334.00
334.00
334.00
331.00
334.00
333.00
332.00
334.00
335.00
335.00
338.00
337.00
339.00
342.00
339.00
340.00
342.00
340.00
341.00
342.00
339.00
343.00
343.00
341.00
342.00
344.00
343.00
346.00
345.00
344.00
344.00
345.00
343.00
344.00
343.00
341.00
344.00
341.00
341.00
343.00
342.00
343.00
346.00
344.00
343.00
343.00
343.00
343.00
346.00
344.00
346.00
346.00
343.00
343.00
345.00
343.00
345.00
345.00
344.00
348.00
346.00
345.00
347.00
346.00
344.00
348.00
345.00
343.00
345.00
344.00
343.00
345.00
344.00
342.00
346.00
344.00
344.00
346.00
345.00
345.00
348.00
347.00
349.00
350.00
348.00
349.00
349.00
348.00
350.00
348.00
346.00
347.00
346.00
346.00
346.00
346.00
344.00
349.00
347.00
347.00
350.00
350.00
347.00
350.00
347.00
346.00
349.00
348.00
349.00
351.00
351.00
352.00
353.00
350.00
351.00
351.00
350.00
352.00
350.00
349.00
352.00
350.00
348.00
350.00
351.00
350.00
356.00
357.00
358.00
362.00
367.00
370.00
375.00
379.00
383.00
389.00
388.00
386.00
384.00
384.00
386.00
390.00
392.00
396.00
399.00
399.00
400.00
398.00
392.00
390.00
386.00
379.00
377.00
373.00
367.00
364.00
361.00
356.00
358.00
355.00
352.00
352.00
350.00
347.00
350.00
348.00
347.00
348.00
345.00
346.00
347.00
345.00
346.00
348.00
344.00
343.00
346.00
344.00
345.00
346.00
345.00
346.00
343.00
336.00
334.00
335.00
335.00
342.00
350.00
359.00
374.00
391.00
413.00
445.00
487.00
541.00
604.00
657.00
700.00
710.00
690.00
656.00
612.00
562.00
516.00
474.00
431.00
395.00
367.00
341.00
325.00
318.00
313.00
316.00
324.00
331.00
338.00
343.00
344.00
350.00
349.00
347.00
347.00
346.00
344.00
348.00
346.00
345.00
347.00
343.00
341.00
344.00
343.00
344.00
349.00
348.00
347.00
348.00
347.00
347.00
348.00
348.00
349.00
350.00
349.00
351.00
352.00
352.00
355.00
354.00
351.00
352.00
353.00
352.00
355.00
354.00
352.00
358.00
356.00
355.00
359.00
359.00
359.00
363.00
363.00
363.00
364.00
363.00
364.00
366.00
366.00
367.00
368.00
367.00
368.00
368.00
368.00
370.00
371.00
370.00
376.00
377.00
376.00
379.00
379.00
377.00
379.00
378.00
378.00
382.00
385.00
385.00
388.00
390.00
391.00
394.00
394.00
396.00
397.00
397.00
398.00
400.00
400.00
403.00
405.00
403.00
406.00
408.00
408.00
412.00
413.00
413.00
416.00
416.00
414.00
415.00
415.00
413.00
416.00
414.00
413.00
413.00
413.00
411.00
409.00
405.00
403.00
401.00
394.00
392.00
389.00
383.00
381.00
380.00
373.00
370.00
367.00
363.00
360.00
357.00
352.00
350.00
349.00
345.00
345.00
344.00
340.00
340.00
339.00
335.00
338.00
334.00
332.00
333.00
332.00
331.00
335.00
331.00
329.00
329.00
327.00
327.00
328.00
327.00
328.00
331.00
329.00
329.00
332.00
330.00
331.00
334.00
331.00
334.00
334.00
333.00
335.00
335.00
334.00
337.00
336.00
335.00
337.00
336.00
333.00
335.00
334.00
334.00
340.00
338.00
341.00
341.00
340.00
339.00
342.00
339.00
338.00
340.00
339.00
339.00
341.00
342.00
344.00
345.00
343.00
345.00
345.00
345.00
347.00
345.00
343.00
346.00
343.00
341.00
343.00
343.00
341.00
347.00
345.00
344.00
345.00
344.00
343.00
344.00
344.00
344.00
346.00
345.00
345.00
346.00
346.00
346.00
348.00
347.00
348.00
347.00
344.00
345.00
345.00
343.00
347.00
347.00
344.00
346.00
346.00
344.00
345.00
345.00
343.00
347.00
345.00
344.00
345.00
344.00
344.00
347.00
345.00
344.00
346.00
345.00
346.00
347.00
344.00
346.00
348.00
346.00
348.00
349.00
347.00
349.00
348.00
347.00
351.00
351.00
